SpectraSuite Data File
++++++++++++++++++++++++++++++++++++
Date: Tue Oct 29 20:09:41 EDT 2024
User: DJ
Dark Spectrum Present: No
Reference Spectrum Present: No
Number of Sampled Component Spectra: 1
Spectrometers: JAZA0267
Integration Time (usec): 500000 (JAZA0267)
Spectra Averaged: 1 (JAZA0267)
Boxcar Smoothing: 0 (JAZA0267)
Correct for Electrical Dark: No (JAZA0267)
Strobe/Lamp Enabled: No (JAZA0267)
Correct for Detector Non-linearity: No (JAZA0267)
Correct for Stray Light: No (JAZA0267)
Number of Pixels in Processed Spectrum: 2048
>>>>>Begin Processed Spectral Data<<<<<
340.37	1278.73
340.75	1278.73
341.13	1278.73
341.51	1214.80
341.89	1306.13
342.27	1281.02
342.66	1383.77
343.04	1374.64
343.42	1507.08
343.80	1438.57
344.18	1449.99
344.56	1438.57
344.94	1319.83
345.32	1413.46
345.71	1351.80
346.09	1360.94
346.47	1370.07
346.85	1418.02
347.23	1312.98
347.61	1367.79
347.99	1322.12
348.37	1465.97
348.75	1358.65
349.13	1470.54
349.51	1481.96
349.90	1465.97
350.28	1347.24
350.66	1370.07
351.04	1502.51
351.42	1342.67
351.80	1351.80
352.18	1406.60
352.56	1322.12
352.94	1363.22
353.32	1370.07
353.70	1363.22
354.08	1399.75
354.46	1271.88
354.84	1358.65
355.22	1276.45
355.60	1360.94
355.98	1255.90
356.36	1511.64
356.74	1413.46
357.12	1388.34
357.50	1418.02
357.88	1349.52
358.26	1392.90
358.64	1395.19
359.02	1429.44
359.40	1360.94
359.78	1470.54
360.16	1402.04
360.54	1402.04
360.92	1360.94
361.30	1406.60
361.68	1333.53
362.06	1319.83
362.44	1342.67
362.82	1374.64
363.20	1402.04
363.58	1317.55
363.96	1349.52
364.34	1340.38
364.72	1354.09
365.09	1477.39
365.47	1365.50
365.85	1406.60
366.23	1315.27
366.61	1365.50
366.99	1315.27
367.37	1344.95
367.75	1456.84
368.13	1374.64
368.51	1358.65
368.89	1338.10
369.26	1381.49
369.64	1404.32
370.02	1488.81
370.40	1625.82
370.78	1472.82
371.16	1340.38
371.54	1390.62
371.92	1386.05
372.29	1299.28
372.67	1303.85
373.05	1328.97
373.43	1390.62
373.81	1431.72
374.19	1297.00
374.56	1347.24
374.94	1294.72
375.32	1402.04
375.70	1381.49
376.08	1265.03
376.46	1324.40
376.83	1374.64
377.21	1438.57
377.59	1431.72
377.97	1440.86
378.35	1347.24
378.72	1315.27
379.10	1367.79
379.48	1335.82
379.86	1392.90
380.24	1397.47
380.61	1349.52
380.99	1365.50
381.37	1335.82
381.75	1351.80
382.12	1328.97
382.50	1358.65
382.88	1370.07
383.26	1408.89
383.64	1516.21
384.01	1308.42
384.39	1328.97
384.77	1402.04
385.14	1395.19
385.52	1324.40
385.90	1431.72
386.28	1399.75
386.65	1431.72
387.03	1292.43
387.41	1529.91
387.79	1356.37
388.16	1315.27
388.54	1408.89
388.92	1326.68
389.29	1383.77
389.67	1420.31
390.05	1301.57
390.42	1356.37
390.80	1386.05
391.18	1331.25
391.55	1388.34
391.93	1424.87
392.31	1239.91
392.68	1283.30
393.06	1365.50
393.44	1278.73
393.81	1347.24
394.19	1402.04
394.57	1470.54
394.94	1440.86
395.32	1415.74
395.70	1360.94
396.07	1297.00
396.45	1310.70
396.83	1411.17
397.20	1317.55
397.58	1408.89
397.95	1328.97
398.33	1349.52
398.71	1449.99
399.08	1342.67
399.46	1294.72
399.83	1390.62
400.21	1347.24
400.59	1354.09
400.96	1351.80
401.34	1338.10
401.71	1365.50
402.09	1328.97
402.46	1315.27
402.84	1365.50
403.22	1351.80
403.59	1420.31
403.97	1372.35
404.34	1381.49
404.72	1358.65
405.09	1333.53
405.47	1244.48
405.84	1434.01
406.22	1388.34
406.59	1402.04
406.97	1340.38
407.35	1358.65
407.72	1367.79
408.10	1386.05
408.47	1481.96
408.85	1589.28
409.22	1411.17
409.60	1381.49
409.97	1372.35
410.35	1319.83
410.72	1388.34
411.10	1452.27
411.47	1324.40
411.84	1326.68
412.22	1413.46
412.59	1388.34
412.97	1340.38
413.34	1436.29
413.72	1386.05
414.09	1312.98
414.47	1408.89
414.84	1344.95
415.22	1374.64
415.59	1461.41
415.96	1374.64
416.34	1347.24
416.71	1379.20
417.09	1349.52
417.46	1335.82
417.84	1338.10
418.21	1386.05
418.58	1328.97
418.96	1372.35
419.33	1408.89
419.71	1331.25
420.08	1367.79
420.45	1440.86
420.83	1317.55
421.20	1374.64
421.58	1429.44
421.95	1365.50
422.32	1402.04
422.70	1452.27
423.07	1395.19
423.44	1356.37
423.82	1367.79
424.19	1344.95
424.56	1354.09
424.94	1386.05
425.31	1319.83
425.68	1386.05
426.06	1338.10
426.43	1413.46
426.80	1404.32
427.18	1344.95
427.55	1301.57
427.92	1344.95
428.30	1424.87
428.67	1445.42
429.04	1395.19
429.42	1388.34
429.79	1344.95
430.16	1310.70
430.53	1372.35
430.91	1269.60
431.28	1402.04
431.65	1358.65
432.03	1338.10
432.40	1418.02
432.77	1374.64
433.14	1481.96
433.52	1543.61
433.89	1360.94
434.26	1445.42
434.63	1328.97
435.01	1319.83
435.38	1434.01
435.75	1379.20
436.12	1632.67
436.50	1424.87
436.87	1360.94
437.24	1431.72
437.61	1381.49
437.98	1365.50
438.36	1392.90
438.73	1347.24
439.10	1395.19
439.47	1418.02
439.84	1541.33
440.22	1454.56
440.59	1390.62
440.96	1429.44
441.33	1365.50
441.70	1363.22
442.08	1376.92
442.45	1402.04
442.82	1333.53
443.19	1383.77
443.56	1424.87
443.93	1411.17
444.30	1406.60
444.68	1285.58
445.05	1328.97
445.42	1328.97
445.79	1356.37
446.16	1340.38
446.53	1379.20
446.90	1347.24
447.28	1399.75
447.65	1662.35
448.02	1344.95
448.39	1443.14
448.76	1328.97
449.13	1365.50
449.50	1406.60
449.87	1356.37
450.24	1379.20
450.61	1395.19
450.98	1402.04
451.36	1411.17
451.73	1258.18
452.10	1367.79
452.47	1365.50
452.84	1328.97
453.21	1438.57
453.58	1386.05
453.95	1303.85
454.32	1319.83
454.69	1363.22
455.06	1381.49
455.43	1486.53
455.80	1440.86
456.17	1372.35
456.54	1317.55
456.91	1511.64
457.28	1424.87
457.65	1406.60
458.02	1413.46
458.39	1376.92
458.76	1427.16
459.13	1459.12
459.50	1328.97
459.87	1431.72
460.24	1548.18
460.61	1379.20
460.98	1269.60
461.35	1365.50
461.72	1347.24
462.09	1326.68
462.46	1308.42
462.83	1358.65
463.20	1367.79
463.57	1376.92
463.94	1424.87
464.31	1354.09
464.68	1319.83
465.05	1324.40
465.42	1299.28
465.78	1292.43
466.15	1335.82
466.52	1356.37
466.89	1292.43
467.26	1434.01
467.63	1249.05
468.00	1397.47
468.37	1383.77
468.74	1351.80
469.11	1413.46
469.47	1392.90
469.84	1413.46
470.21	1390.62
470.58	1422.59
470.95	1386.05
471.32	1429.44
471.69	1349.52
472.06	1363.22
472.42	1354.09
472.79	1340.38
473.16	1349.52
473.53	1360.94
473.90	1365.50
474.27	1379.20
474.63	1262.75
475.00	1308.42
475.37	1315.27
475.74	1326.68
476.11	1415.74
476.48	1388.34
476.84	1287.87
477.21	1408.89
477.58	1340.38
477.95	1312.98
478.31	1392.90
478.68	1392.90
479.05	1347.24
479.42	1427.16
479.79	1370.07
480.15	1447.71
480.52	1436.29
480.89	1397.47
481.26	1429.44
481.62	1379.20
481.99	1367.79
482.36	1429.44
482.73	1465.97
483.09	1324.40
483.46	1356.37
483.83	1402.04
484.20	1360.94
484.56	1365.50
484.93	1367.79
485.30	1328.97
485.66	1342.67
486.03	1335.82
486.40	1438.57
486.77	1477.39
487.13	1374.64
487.50	1360.94
487.87	1335.82
488.23	1470.54
488.60	1338.10
488.97	1415.74
489.33	1422.59
489.70	1431.72
490.07	1495.66
490.43	1415.74
490.80	1422.59
491.17	1431.72
491.53	1354.09
491.90	1406.60
492.27	1402.04
492.63	1317.55
493.00	1292.43
493.36	1518.49
493.73	1390.62
494.10	1331.25
494.46	1351.80
494.83	1555.03
495.20	1404.32
495.56	1484.24
495.93	1374.64
496.29	1449.99
496.66	1500.23
497.03	1422.59
497.39	1347.24
497.76	1465.97
498.12	1360.94
498.49	1541.33
498.85	1395.19
499.22	1502.51
499.59	1545.90
499.95	1532.19
500.32	1486.53
500.68	1463.69
501.05	1539.04
501.41	1472.82
501.78	1440.86
502.14	1431.72
502.51	1434.01
502.87	1566.45
503.24	1577.86
503.60	1712.59
503.97	1698.89
504.33	1511.64
504.70	1481.96
505.06	1520.78
505.43	1452.27
505.79	1628.10
506.16	1513.93
506.52	1598.41
506.89	1648.65
507.25	1644.08
507.62	1591.56
507.98	1593.85
508.35	1623.53
508.71	1602.98
509.08	1724.00
509.44	1655.50
509.81	1778.81
510.17	1698.89
510.53	1794.79
510.90	1799.36
511.26	1913.53
511.63	2020.85
511.99	1950.07
512.36	1998.02
512.72	2112.19
513.08	2146.44
513.45	2157.86
513.81	2294.87
514.18	2221.80
514.54	2427.31
514.90	2386.20
515.27	2507.23
515.63	2557.46
516.00	2607.70
516.36	2785.81
516.72	2890.85
517.09	2993.60
517.45	3187.70
517.81	3324.70
518.18	3411.47
518.54	3461.71
518.90	3626.12
519.27	3655.80
519.63	3658.09
519.99	3772.26
520.36	3827.06
520.72	3847.61
521.08	3813.36
521.45	3859.03
521.81	3722.02
522.17	3891.00
522.54	4028.00
522.90	3751.71
523.26	3763.12
523.63	3751.71
523.99	3849.90
524.35	3856.75
524.71	3703.76
525.08	3601.00
525.44	3557.61
525.80	3292.73
526.16	3162.58
526.53	3064.39
526.89	2993.60
527.25	3052.97
527.62	2808.64
527.98	2641.95
528.34	2552.90
528.70	2443.29
529.06	2386.20
529.43	2281.17
529.79	2548.33
530.15	2187.54
530.51	2096.21
530.88	2002.59
531.24	2009.44
531.60	1966.05
531.96	1904.40
532.32	2107.62
532.69	1877.00
533.05	1851.88
533.41	1845.03
533.77	1913.53
534.13	1833.61
534.49	1774.24
534.86	1845.03
535.22	1767.39
535.58	1813.06
535.94	1787.94
536.30	1657.78
536.66	1792.51
537.03	1648.65
537.39	1673.77
537.75	1698.89
538.11	1726.29
538.47	1657.78
538.83	1621.25
539.19	1607.55
539.55	1639.52
539.91	1623.53
540.28	1564.16
540.64	1539.04
541.00	1571.01
541.36	1607.55
541.72	1502.51
542.08	1621.25
542.44	1555.03
542.80	1463.69
543.16	1504.79
543.52	1614.40
543.88	1516.21
544.24	1552.75
544.61	1475.11
544.97	1452.27
545.33	1502.51
545.69	1452.27
546.05	1596.13
546.41	1438.57
546.77	1527.63
547.13	1616.68
547.49	1527.63
547.85	1534.48
548.21	1500.23
548.57	1493.38
548.93	1434.01
549.29	1481.96
549.65	1472.82
550.01	1534.48
550.37	1536.76
550.73	1475.11
551.09	1477.39
551.45	1504.79
551.81	1511.64
552.17	1438.57
552.53	1456.84
552.89	1449.99
553.25	1481.96
553.61	1422.59
553.96	1424.87
554.32	1440.86
554.68	1532.19
555.04	1402.04
555.40	1404.32
555.76	1486.53
556.12	1413.46
556.48	1527.63
556.84	1388.34
557.20	1328.97
557.56	1434.01
557.92	1459.12
558.27	1402.04
558.63	1465.97
558.99	1367.79
559.35	1520.78
559.71	1420.31
560.07	1525.34
560.43	1342.67
560.79	1438.57
561.14	1386.05
561.50	1418.02
561.86	1497.94
562.22	1447.71
562.58	1358.65
562.94	1564.16
563.30	1395.19
563.65	1452.27
564.01	1381.49
564.37	1434.01
564.73	1459.12
565.09	1420.31
565.44	1422.59
565.80	1390.62
566.16	1333.53
566.52	1644.08
566.88	1493.38
567.23	1390.62
567.59	1479.68
567.95	1395.19
568.31	1331.25
568.67	1390.62
569.02	1349.52
569.38	1468.26
569.74	1376.92
570.10	1340.38
570.45	1392.90
570.81	1438.57
571.17	1470.54
571.53	1698.89
571.88	1374.64
572.24	1360.94
572.60	1310.70
572.96	1511.64
573.31	1292.43
573.67	1392.90
574.03	1447.71
574.38	1443.14
574.74	1395.19
575.10	1411.17
575.45	1328.97
575.81	1406.60
576.17	1504.79
576.53	1424.87
576.88	1358.65
577.24	1406.60
577.60	1411.17
577.95	1331.25
578.31	1328.97
578.67	1427.16
579.02	1452.27
579.38	1452.27
579.73	1358.65
580.09	1374.64
580.45	1347.24
580.80	1434.01
581.16	1367.79
581.52	1303.85
581.87	1406.60
582.23	1404.32
582.58	1468.26
582.94	1386.05
583.30	1465.97
583.65	1383.77
584.01	1402.04
584.36	1404.32
584.72	1434.01
585.08	1335.82
585.43	1281.02
585.79	1354.09
586.14	1360.94
586.50	1392.90
586.85	1470.54
587.21	1422.59
587.56	1415.74
587.92	1324.40
588.28	1386.05
588.63	1406.60
588.99	1402.04
589.34	1408.89
589.70	1356.37
590.05	1315.27
590.41	1342.67
590.76	1349.52
591.12	1310.70
591.47	1390.62
591.83	1278.73
592.18	1324.40
592.54	1351.80
592.89	1449.99
593.25	1411.17
593.60	1402.04
593.96	2267.47
594.31	1404.32
594.67	1347.24
595.02	1319.83
595.37	1402.04
595.73	1370.07
596.08	1294.72
596.44	1454.56
596.79	1370.07
597.15	1383.77
597.50	1438.57
597.85	1411.17
598.21	1445.42
598.56	1354.09
598.92	1438.57
599.27	1415.74
599.63	1297.00
599.98	1370.07
600.33	1340.38
600.69	1392.90
601.04	1319.83
601.39	1351.80
601.75	1420.31
602.10	1315.27
602.46	1395.19
602.81	1717.15
603.16	1452.27
603.52	1349.52
603.87	1383.77
604.22	1331.25
604.58	1402.04
604.93	1310.70
605.28	1271.88
605.64	1328.97
605.99	1422.59
606.34	1381.49
606.70	1420.31
607.05	1374.64
607.40	1349.52
607.76	1365.50
608.11	1386.05
608.46	1340.38
608.81	1374.64
609.17	1349.52
609.52	1303.85
609.87	1383.77
610.23	1338.10
610.58	1388.34
610.93	1386.05
611.28	1299.28
611.64	1328.97
611.99	1326.68
612.34	1360.94
612.69	1381.49
613.05	1411.17
613.40	1354.09
613.75	1427.16
614.10	1386.05
614.45	1310.70
614.81	1294.72
615.16	1342.67
615.51	1333.53
615.86	1358.65
616.21	1297.00
616.57	1328.97
616.92	1468.26
617.27	1370.07
617.62	1397.47
617.97	1351.80
618.32	1328.97
618.68	1354.09
619.03	1324.40
619.38	1404.32
619.73	1356.37
620.08	1420.31
620.43	1420.31
620.79	1445.42
621.14	1328.97
621.49	1349.52
621.84	1319.83
622.19	1340.38
622.54	1399.75
622.89	1358.65
623.24	1317.55
623.60	1351.80
623.95	1340.38
624.30	1374.64
624.65	1269.60
625.00	1418.02
625.35	1475.11
625.70	1390.62
626.05	1360.94
626.40	1360.94
626.75	1356.37
627.10	1328.97
627.45	1402.04
627.80	1347.24
628.15	1459.12
628.50	1356.37
628.86	1322.12
629.21	1358.65
629.56	1308.42
629.91	1390.62
630.26	1358.65
630.61	1319.83
630.96	1429.44
631.31	1360.94
631.66	1344.95
632.01	1308.42
632.36	1258.18
632.71	1404.32
633.06	1338.10
633.41	1322.12
633.76	1301.57
634.11	1297.00
634.45	1408.89
634.80	1475.11
635.15	1310.70
635.50	1376.92
635.85	1438.57
636.20	1491.09
636.55	1408.89
636.90	1397.47
637.25	1402.04
637.60	1299.28
637.95	1479.68
638.30	1413.46
638.65	1520.78
639.00	1459.12
639.35	1306.13
639.69	1333.53
640.04	1326.68
640.39	1358.65
640.74	1356.37
641.09	1299.28
641.44	1340.38
641.79	1271.88
642.14	1379.20
642.48	1374.64
642.83	1374.64
643.18	1477.39
643.53	1365.50
643.88	1397.47
644.23	1468.26
644.58	1360.94
644.92	1342.67
645.27	1297.00
645.62	1379.20
645.97	1338.10
646.32	1303.85
646.66	1342.67
647.01	1312.98
647.36	1303.85
647.71	1338.10
648.06	1420.31
648.40	1322.12
648.75	1397.47
649.10	1372.35
649.45	1365.50
649.80	1429.44
650.14	1379.20
650.49	1370.07
650.84	1351.80
651.19	1299.28
651.53	1299.28
651.88	1363.22
652.23	1365.50
652.58	1404.32
652.92	1388.34
653.27	1267.31
653.62	1328.97
653.96	1383.77
654.31	1251.33
654.66	1354.09
655.01	1322.12
655.35	1383.77
655.70	1397.47
656.05	1424.87
656.39	1390.62
656.74	1376.92
657.09	1379.20
657.43	1340.38
657.78	1392.90
658.13	1376.92
658.47	1271.88
658.82	1395.19
659.17	1360.94
659.51	1399.75
659.86	1283.30
660.20	1376.92
660.55	1404.32
660.90	1383.77
661.24	1381.49
661.59	1301.57
661.94	1358.65
662.28	1390.62
662.63	1381.49
662.97	1306.13
663.32	1376.92
663.67	1475.11
664.01	1344.95
664.36	1338.10
664.70	1347.24
665.05	1518.49
665.39	1349.52
665.74	1477.39
666.09	1319.83
666.43	1386.05
666.78	1297.00
667.12	1333.53
667.47	1328.97
667.81	1358.65
668.16	1447.71
668.50	1347.24
668.85	1347.24
669.19	1358.65
669.54	1434.01
669.88	1376.92
670.23	1424.87
670.57	1319.83
670.92	1338.10
671.26	1354.09
671.61	1418.02
671.95	1299.28
672.30	1381.49
672.64	1335.82
672.99	1406.60
673.33	1351.80
673.68	1434.01
674.02	1324.40
674.37	1354.09
674.71	1365.50
675.05	1395.19
675.40	1415.74
675.74	1381.49
676.09	1370.07
676.43	1431.72
676.77	1443.14
677.12	1379.20
677.46	1468.26
677.81	1411.17
678.15	1370.07
678.49	1335.82
678.84	1294.72
679.18	1328.97
679.53	1367.79
679.87	1392.90
680.21	1351.80
680.56	1324.40
680.90	1351.80
681.24	1440.86
681.59	1440.86
681.93	1392.90
682.27	1420.31
682.62	1415.74
682.96	1406.60
683.30	1356.37
683.65	1379.20
683.99	1365.50
684.33	1365.50
684.68	1226.21
685.02	1340.38
685.36	1386.05
685.71	1411.17
686.05	1465.97
686.39	1349.52
686.73	1443.14
687.08	1669.20
687.42	1415.74
687.76	1331.25
688.11	1370.07
688.45	1415.74
688.79	1354.09
689.13	1338.10
689.48	1333.53
689.82	1379.20
690.16	1253.61
690.50	1365.50
690.84	1342.67
691.19	1340.38
691.53	1383.77
691.87	1360.94
692.21	1342.67
692.56	1308.42
692.90	1395.19
693.24	1386.05
693.58	1354.09
693.92	1351.80
694.26	1328.97
694.61	1468.26
694.95	1376.92
695.29	1310.70
695.63	1324.40
695.97	1331.25
696.31	1390.62
696.66	1333.53
697.00	1370.07
697.34	1463.69
697.68	1370.07
698.02	1342.67
698.36	1365.50
698.70	1497.94
699.04	1303.85
699.39	1440.86
699.73	1360.94
700.07	1402.04
700.41	1292.43
700.75	1333.53
701.09	1367.79
701.43	1335.82
701.77	1379.20
702.11	1351.80
702.45	1388.34
702.79	1306.13
703.13	1365.50
703.47	1411.17
703.82	1365.50
704.16	1333.53
704.50	1386.05
704.84	1351.80
705.18	1317.55
705.52	1315.27
705.86	1333.53
706.20	1365.50
706.54	1365.50
706.88	1356.37
707.22	1447.71
707.56	1390.62
707.90	1427.16
708.24	1354.09
708.58	1365.50
708.92	1415.74
709.26	1358.65
709.60	1349.52
709.94	1420.31
710.28	1363.22
710.61	1344.95
710.95	1427.16
711.29	1328.97
711.63	1299.28
711.97	1376.92
712.31	1328.97
712.65	1360.94
712.99	1374.64
713.33	1463.69
713.67	1374.64
714.01	1340.38
714.35	1383.77
714.69	1440.86
715.02	1287.87
715.36	1397.47
715.70	1349.52
716.04	1356.37
716.38	1315.27
716.72	1379.20
717.06	1486.53
717.40	1301.57
717.73	1502.51
718.07	1287.87
718.41	1463.69
718.75	1452.27
719.09	1445.42
719.43	1315.27
719.76	1365.50
720.10	1365.50
720.44	1297.00
720.78	1281.02
721.12	1301.57
721.45	1312.98
721.79	1287.87
722.13	1283.30
722.47	1306.13
722.81	1360.94
723.14	2605.42
723.48	1525.34
723.82	1379.20
724.16	1456.84
724.49	1381.49
724.83	1431.72
725.17	1443.14
725.51	1370.07
725.84	1386.05
726.18	1427.16
726.52	1536.76
726.86	1349.52
727.19	1370.07
727.53	1429.44
727.87	1338.10
728.20	1349.52
728.54	1269.60
728.88	1342.67
729.22	1276.45
729.55	1333.53
729.89	1338.10
730.23	1392.90
730.56	1390.62
730.90	1536.76
731.24	1470.54
731.57	1379.20
731.91	1434.01
732.25	1459.12
732.58	1370.07
732.92	1427.16
733.25	1342.67
733.59	1408.89
733.93	1349.52
734.26	1331.25
734.60	1456.84
734.94	1411.17
735.27	1333.53
735.61	1479.68
735.94	1347.24
736.28	1294.72
736.62	1452.27
736.95	1379.20
737.29	1402.04
737.62	1379.20
737.96	1358.65
738.29	1333.53
738.63	1386.05
738.97	1340.38
739.30	1356.37
739.64	1349.52
739.97	1356.37
740.31	1397.47
740.64	1434.01
740.98	1308.42
741.31	1292.43
741.65	1463.69
741.98	1354.09
742.32	1358.65
742.65	1287.87
742.99	1429.44
743.32	1376.92
743.66	1424.87
743.99	1370.07
744.33	1367.79
744.66	1395.19
745.00	1408.89
745.33	1445.42
745.67	1491.09
746.00	1383.77
746.33	1317.55
746.67	1509.36
747.00	1370.07
747.34	1324.40
747.67	1372.35
748.01	1340.38
748.34	1402.04
748.67	1520.78
749.01	1447.71
749.34	1370.07
749.68	1447.71
750.01	1374.64
750.34	1317.55
750.68	1354.09
751.01	1408.89
751.35	1406.60
751.68	1351.80
752.01	1411.17
752.35	1395.19
752.68	1397.47
753.01	1358.65
753.35	1395.19
753.68	1431.72
754.01	1429.44
754.35	1431.72
754.68	1404.32
755.01	1358.65
755.35	1367.79
755.68	1388.34
756.01	1463.69
756.35	1413.46
756.68	1297.00
757.01	1379.20
757.34	1379.20
757.68	1315.27
758.01	1376.92
758.34	1429.44
758.68	1370.07
759.01	1347.24
759.34	1390.62
759.67	1340.38
760.01	1379.20
760.34	1402.04
760.67	1440.86
761.00	1335.82
761.33	1395.19
761.67	1465.97
762.00	1388.34
762.33	1527.63
762.66	1335.82
763.00	1413.46
763.33	1408.89
763.66	1456.84
763.99	1383.77
764.32	1349.52
764.65	1484.24
764.99	1390.62
765.32	1418.02
765.65	1383.77
765.98	1502.51
766.31	1584.71
766.64	1634.95
766.98	1360.94
767.31	1372.35
767.64	1502.51
767.97	1397.47
768.30	1331.25
768.63	1344.95
768.96	1338.10
769.29	1568.73
769.63	1452.27
769.96	1386.05
770.29	1376.92
770.62	1402.04
770.95	1344.95
771.28	1411.17
771.61	1381.49
771.94	1294.72
772.27	1459.12
772.60	1319.83
772.93	1342.67
773.26	1493.38
773.59	1392.90
773.92	1475.11
774.26	1356.37
774.59	1456.84
774.92	1484.24
775.25	1365.50
775.58	1281.02
775.91	1420.31
776.24	1386.05
776.57	1365.50
776.90	1392.90
777.23	1459.12
777.56	1281.02
777.89	1331.25
778.22	1251.33
778.55	1541.33
778.87	1265.03
779.20	1440.86
779.53	1402.04
779.86	1322.12
780.19	1381.49
780.52	1436.29
780.85	1404.32
781.18	1438.57
781.51	1351.80
781.84	1365.50
782.17	1390.62
782.50	1390.62
782.83	1297.00
783.16	1379.20
783.48	1335.82
783.81	1374.64
784.14	1354.09
784.47	1297.00
784.80	1338.10
785.13	1251.33
785.46	1333.53
785.79	1301.57
786.11	1376.92
786.44	1424.87
786.77	1390.62
787.10	1356.37
787.43	1324.40
787.76	1392.90
788.09	1278.73
788.41	1360.94
788.74	1422.59
789.07	1312.98
789.40	1347.24
789.73	1349.52
790.05	1379.20
790.38	1338.10
790.71	1310.70
791.04	1372.35
791.37	1326.68
791.69	1374.64
792.02	1308.42
792.35	1404.32
792.68	1367.79
793.00	1418.02
793.33	1365.50
793.66	1370.07
793.99	1372.35
794.31	1438.57
794.64	1360.94
794.97	1461.41
795.29	1411.17
795.62	1363.22
795.95	1406.60
796.28	1420.31
796.60	1397.47
796.93	1413.46
797.26	1342.67
797.58	1392.90
797.91	1344.95
798.24	1328.97
798.56	1449.99
798.89	1370.07
799.22	1342.67
799.54	1465.97
799.87	1445.42
800.20	1402.04
800.52	1299.28
800.85	1488.81
801.17	1376.92
801.50	1335.82
801.83	1424.87
802.15	1292.43
802.48	1301.57
802.81	1370.07
803.13	1376.92
803.46	1424.87
803.78	1358.65
804.11	1372.35
804.43	1454.56
804.76	1367.79
805.09	1422.59
805.41	1338.10
805.74	1306.13
806.06	1317.55
806.39	1399.75
806.71	1271.88
807.04	1356.37
807.36	1360.94
807.69	1429.44
808.01	1399.75
808.34	1301.57
808.67	1335.82
808.99	1365.50
809.32	1397.47
809.64	1335.82
809.97	1367.79
810.29	1326.68
810.61	1386.05
810.94	1376.92
811.26	1269.60
811.59	1331.25
811.91	1429.44
812.24	1374.64
812.56	1376.92
812.89	1303.85
813.21	1443.14
813.54	1351.80
813.86	1381.49
814.18	1370.07
814.51	1374.64
814.83	1333.53
815.16	1363.22
815.48	1344.95
815.80	1388.34
816.13	1443.14
816.45	1360.94
816.78	1415.74
817.10	1370.07
817.42	1447.71
817.75	1406.60
818.07	1374.64
818.39	1358.65
818.72	1292.43
819.04	1365.50
819.37	1415.74
819.69	1349.52
820.01	1461.41
820.33	1420.31
820.66	1354.09
820.98	1312.98
821.30	1379.20
821.63	1367.79
821.95	1356.37
822.27	1370.07
822.60	1420.31
822.92	1420.31
823.24	1283.30
823.56	1342.67
823.89	1328.97
824.21	1363.22
824.53	1381.49
824.86	1319.83
825.18	1335.82
825.50	1411.17
825.82	1404.32
826.15	1392.90
826.47	1440.86
826.79	1338.10
827.11	1306.13
827.43	1388.34
827.76	1315.27
828.08	1351.80
828.40	1351.80
828.72	1358.65
829.04	1370.07
829.37	1367.79
829.69	1328.97
830.01	1370.07
830.33	1438.57
830.65	1358.65
830.97	1335.82
831.30	1381.49
831.62	1310.70
831.94	1452.27
832.26	1299.28
832.58	1367.79
832.90	1292.43
833.22	1310.70
833.55	1365.50
833.87	1516.21
834.19	1468.26
834.51	1328.97
834.83	1281.02
835.15	1333.53
835.47	1255.90
835.79	1449.99
836.11	1386.05
836.43	1429.44
836.75	1434.01
837.07	1344.95
837.40	1429.44
837.72	1475.11
838.04	1376.92
838.36	1383.77
838.68	1443.14
839.00	1383.77
839.32	1443.14
839.64	1449.99
839.96	1335.82
840.28	1424.87
840.60	1452.27
840.92	1438.57
841.24	1395.19
841.56	1331.25
841.88	1376.92
842.20	1404.32
842.52	1333.53
842.84	1376.92
843.16	1372.35
843.48	1456.84
843.80	1333.53
844.11	1363.22
844.43	1312.98
844.75	1395.19
845.07	1331.25
845.39	1358.65
845.71	1420.31
846.03	1358.65
846.35	1306.13
846.67	1351.80
846.99	1427.16
847.31	1326.68
847.63	1287.87
847.94	1376.92
848.26	1370.07
848.58	1354.09
848.90	1285.58
849.22	1374.64
849.54	1360.94
849.86	1386.05
850.17	1360.94
850.49	1370.07
850.81	1349.52
851.13	1328.97
851.45	1397.47
851.77	1338.10
852.08	1516.21
852.40	1365.50
852.72	1306.13
853.04	1370.07
853.36	1390.62
853.67	1358.65
853.99	1602.98
854.31	1312.98
854.63	1388.34
854.95	1502.51
855.26	1411.17
855.58	1301.57
855.90	1395.19
856.22	1402.04
856.53	1351.80
856.85	1335.82
857.17	1392.90
857.48	1294.72
857.80	1445.42
858.12	1443.14
858.44	1376.92
858.75	1342.67
859.07	1388.34
859.39	1390.62
859.70	1360.94
860.02	1447.71
860.34	1436.29
860.65	1354.09
860.97	1360.94
861.29	1344.95
861.60	1406.60
861.92	1260.46
862.24	1278.73
862.55	1406.60
862.87	1388.34
863.19	1347.24
863.50	1328.97
863.82	1333.53
864.14	1312.98
864.45	1411.17
864.77	1413.46
865.08	1548.18
865.40	1271.88
865.72	1370.07
866.03	1374.64
866.35	1265.03
866.66	1406.60
866.98	1443.14
867.29	1351.80
867.61	1445.42
867.93	1358.65
868.24	2089.36
868.56	1520.78
868.87	1427.16
869.19	1422.59
869.50	1287.87
869.82	1365.50
870.13	1335.82
870.45	1408.89
870.76	1379.20
871.08	1319.83
871.39	1342.67
871.71	1370.07
872.02	1383.77
872.34	1342.67
872.65	1381.49
872.97	1333.53
873.28	1374.64
873.60	1402.04
873.91	1297.00
874.22	1360.94
874.54	1351.80
874.85	1338.10
875.17	1367.79
875.48	1443.14
875.80	1347.24
876.11	1367.79
876.42	1351.80
876.74	1420.31
877.05	1363.22
877.37	1434.01
877.68	1356.37
877.99	1431.72
878.31	1376.92
878.62	1468.26
878.94	1420.31
879.25	1365.50
879.56	1388.34
879.88	1415.74
880.19	1434.01
880.50	1404.32
880.82	1395.19
881.13	1395.19
881.44	1333.53
881.76	1335.82
882.07	1418.02
882.38	1365.50
882.70	1322.12
883.01	1287.87
883.32	1297.00
883.63	1342.67
883.95	1322.12
884.26	1465.97
884.57	1436.29
884.89	1297.00
885.20	1445.42
885.51	1292.43
885.82	1328.97
886.14	1338.10
886.45	1376.92
886.76	1315.27
887.07	1269.60
887.38	1290.15
887.70	1260.46
888.01	1408.89
888.32	1331.25
888.63	1420.31
888.95	1395.19
889.26	1406.60
889.57	1342.67
889.88	1333.53
890.19	1397.47
890.50	1445.42
890.82	1340.38
891.13	1488.81
891.44	1402.04
891.75	1331.25
892.06	1342.67
892.37	1438.57
892.68	1424.87
893.00	1459.12
893.31	1486.53
893.62	1415.74
893.93	1363.22
894.24	1317.55
894.55	1333.53
894.86	1404.32
895.17	1328.97
895.48	1395.19
895.79	1351.80
896.11	1342.67
896.42	1342.67
896.73	1484.24
897.04	1383.77
897.35	1338.10
897.66	1358.65
897.97	1452.27
898.28	1365.50
898.59	1379.20
898.90	1440.86
899.21	1367.79
899.52	1470.54
899.83	1383.77
900.14	1406.60
900.45	1322.12
900.76	1360.94
901.07	1335.82
901.38	1397.47
901.69	1486.53
902.00	1297.00
902.31	1349.52
902.62	1408.89
902.93	1310.70
903.24	1370.07
903.55	1475.11
903.86	1406.60
904.17	1402.04
904.47	1354.09
904.78	1360.94
905.09	1370.07
905.40	1434.01
905.71	1402.04
906.02	1548.18
906.33	1465.97
906.64	1287.87
906.95	1504.79
907.26	1376.92
907.56	1730.85
907.87	1360.94
908.18	1465.97
908.49	1404.32
908.80	1360.94
909.11	1415.74
909.42	1404.32
909.72	1527.63
910.03	1312.98
910.34	1306.13
910.65	1347.24
910.96	1395.19
911.26	1356.37
911.57	1440.86
911.88	1349.52
912.19	1418.02
912.50	1331.25
912.80	1381.49
913.11	1376.92
913.42	1342.67
913.73	1338.10
914.04	1381.49
914.34	1356.37
914.65	1324.40
914.96	1347.24
915.26	1342.67
915.57	1383.77
915.88	1402.04
916.19	1374.64
916.49	1299.28
916.80	1379.20
917.11	1459.12
917.41	1370.07
917.72	1388.34
918.03	1397.47
918.34	1461.41
918.64	1319.83
918.95	1454.56
919.26	1452.27
919.56	1392.90
919.87	1504.79
920.18	1335.82
920.48	1342.67
920.79	1360.94
921.09	1372.35
921.40	1356.37
921.71	1322.12
922.01	1418.02
922.32	1402.04
922.63	1349.52
922.93	1301.57
923.24	1440.86
923.54	1356.37
923.85	1349.52
924.15	1402.04
924.46	1374.64
924.77	1475.11
925.07	1452.27
925.38	1477.39
925.68	1388.34
925.99	1349.52
926.29	1333.53
926.60	1322.12
926.90	1383.77
927.21	1475.11
927.51	1290.15
927.82	1376.92
928.12	1333.53
928.43	1338.10
928.73	1269.60
929.04	1315.27
929.34	1351.80
929.65	1335.82
929.95	1294.72
930.26	1351.80
930.56	1445.42
930.87	1360.94
931.17	1402.04
931.48	1276.45
931.78	1333.53
932.09	1315.27
932.39	1392.90
932.69	1413.46
933.00	1347.24
933.30	1424.87
933.61	1340.38
933.91	1335.82
934.21	1276.45
934.52	1367.79
934.82	1356.37
935.13	1402.04
935.43	1424.87
935.73	1292.43
936.04	1365.50
936.34	1477.39
936.64	1365.50
936.95	1317.55
937.25	1376.92
937.55	1411.17
937.86	1452.27
938.16	1374.64
938.46	1404.32
938.77	1392.90
939.07	1420.31
939.37	1390.62
939.68	1367.79
939.98	1351.80
940.28	1390.62
940.58	1495.66
940.89	1358.65
941.19	1447.71
941.49	1527.63
941.80	1399.75
942.10	1338.10
942.40	1287.87
942.70	1381.49
943.01	1351.80
943.31	1372.35
943.61	1331.25
943.91	1420.31
944.21	1360.94
944.52	1294.72
944.82	1331.25
945.12	1372.35
945.42	1406.60
945.72	1383.77
946.03	1338.10
946.33	1427.16
946.63	1445.42
946.93	1354.09
947.23	1367.79
947.53	1342.67
947.84	1269.60
948.14	1413.46
948.44	1379.20
948.74	1504.79
949.04	1308.42
949.34	1292.43
949.64	1447.71
949.94	1411.17
950.24	1367.79
950.55	1340.38
950.85	1388.34
951.15	1402.04
951.45	1449.99
951.75	1370.07
952.05	1356.37
952.35	1319.83
952.65	1365.50
952.95	1322.12
953.25	1406.60
953.55	1383.77
953.85	1365.50
954.15	1365.50
954.45	1397.47
954.75	1434.01
955.05	1390.62
955.35	1310.70
955.65	1397.47
955.95	1326.68
956.25	1333.53
956.55	1344.95
956.85	1431.72
957.15	1349.52
957.45	1434.01
957.75	1406.60
958.05	1413.46
958.35	1438.57
958.65	1438.57
958.95	1404.32
959.25	1468.26
959.55	1420.31
959.85	1344.95
960.15	1420.31
960.45	1431.72
960.74	1438.57
961.04	1392.90
961.34	1331.25
961.64	1310.70
961.94	1379.20
962.24	1379.20
962.54	1477.39
962.84	1351.80
963.13	1500.23
963.43	1402.04
963.73	1290.15
964.03	1516.21
964.33	1258.18
964.63	1292.43
964.93	1333.53
965.22	1308.42
965.52	1374.64
965.82	1397.47
966.12	1356.37
966.42	1276.45
966.71	1310.70
967.01	1310.70
967.31	1328.97
967.61	1331.25
967.90	1331.25
968.20	1404.32
968.50	1424.87
968.80	1324.40
969.09	1328.97
969.39	1328.97
969.69	1356.37
969.99	1459.12
970.28	1328.97
970.58	1315.27
970.88	2157.86
971.18	1328.97
971.47	1374.64
971.77	1351.80
972.07	1404.32
972.36	1315.27
972.66	1260.46
972.96	1388.34
973.25	1420.31
973.55	1475.11
973.85	1363.22
974.14	1310.70
974.44	1333.53
974.74	1376.92
975.03	1386.05
975.33	1335.82
975.62	1411.17
975.92	1365.50
976.22	1365.50
976.51	1477.39
976.81	1395.19
977.10	1363.22
977.40	1365.50
977.70	1422.59
977.99	1402.04
978.29	1338.10
978.58	1376.92
978.88	1388.34
979.17	1454.56
979.47	1479.68
979.77	1424.87
980.06	1310.70
980.36	1402.04
980.65	1607.55
980.95	1354.09
981.24	1424.87
981.54	1347.24
981.83	1388.34
982.13	1395.19
982.42	1342.67
982.72	1335.82
983.01	1445.42
983.31	1418.02
983.60	1308.42
983.89	1424.87
984.19	1596.13
984.48	1338.10
984.78	1413.46
985.07	1456.84
985.37	1463.69
985.66	1367.79
985.96	1328.97
986.25	1356.37
986.54	1413.46
986.84	1324.40
987.13	1397.47
987.43	1360.94
987.72	1349.52
988.01	1328.97
988.31	1294.72
988.60	1465.97
988.89	1324.40
989.19	1488.81
989.48	1338.10
989.77	1331.25
990.07	1356.37
990.36	1431.72
990.65	1434.01
990.95	1402.04
991.24	1365.50
991.53	1285.58
991.83	1338.10
992.12	1424.87
992.41	1406.60
992.71	1319.83
993.00	1344.95
993.29	1328.97
993.58	1340.38
993.88	1328.97
994.17	1310.70
994.46	1310.70
994.75	1447.71
995.05	1328.97
995.34	1420.31
995.63	1390.62
995.92	1383.77
996.22	1388.34
996.51	1568.73
996.80	1520.78
997.09	1408.89
997.38	1395.19
997.68	1312.98
997.97	1319.83
998.26	1388.34
998.55	1342.67
998.84	1351.80
999.13	1406.60
999.43	1344.95
999.72	1292.43
1000.01	1374.64
1000.30	1370.07
1000.59	1360.94
1000.88	1449.99
1001.17	1424.87
1001.47	1294.72
1001.76	1294.72
1002.05	1392.90
1002.34	1328.97
1002.63	1351.80
1002.92	1397.47
1003.21	1285.58
1003.50	1386.05
1003.79	1338.10
1004.08	1516.21
1004.37	1333.53
1004.66	1440.86
1004.95	1376.92
1005.25	1322.12
1005.54	1422.59
1005.83	1338.10
1006.12	1356.37
1006.41	1328.97
1006.70	1513.93
1006.99	1406.60
1007.28	1299.28
1007.57	1388.34
1007.86	1340.38
1008.15	1388.34
1008.44	1422.59
1008.73	1347.24
1009.01	1395.19
1009.30	1415.74
1009.59	1370.07
1009.88	1331.25
1010.17	1324.40
1010.46	1392.90
1010.75	1374.64
1011.04	1413.46
1011.33	1358.65
1011.62	1408.89
1011.91	1379.20
1012.20	1312.98
1012.49	1383.77
1012.77	1408.89
1013.06	1376.92
1013.35	1303.85
1013.64	1541.33
1013.93	1317.55
1014.22	1383.77
1014.51	1402.04
1014.80	1372.35
1015.08	1367.79
1015.37	1438.57
1015.66	1374.64
1015.95	1427.16
1016.24	1365.50
1016.52	1344.95
1016.81	1381.49
1017.10	1447.71
1017.39	1404.32
1017.68	1438.57
1017.96	1310.70
1018.25	1436.29
1018.54	1518.49
1018.83	1507.08
1019.12	1429.44
1019.40	1408.89
1019.69	1493.38
1019.98	1420.31
1020.26	1408.89
1020.55	1370.07
1020.84	1365.50
1021.13	1328.97
1021.41	1315.27
1021.70	1388.34
1021.99	1292.43
1022.27	1358.65
1022.56	1388.34
1022.85	1349.52
1023.14	1552.75
1023.42	1413.46
1023.71	1301.57
1024.00	1367.79
1024.28	1315.27
1024.57	1344.95
1024.85	1436.29
1025.14	1422.59
1025.43	1349.52
1025.71	1468.26
1026.00	1459.12
1026.29	1317.55
1026.57	1370.07
1026.86	1379.20
1027.14	1360.94
1027.43	1411.17
1027.72	1518.49
1028.00	1392.90
1028.29	1271.88
1028.57	1381.49
1028.86	1402.04
1029.14	1335.82
1029.43	1413.46
1029.71	1381.49
1030.00	1287.87
1030.28	1491.09
1030.57	1356.37
1030.86	1367.79
1031.14	1468.26
>>>>>End Processed Spectral Data<<<<<
