SpectraSuite Data File
++++++++++++++++++++++++++++++++++++
Date: Tue Oct 29 20:12:16 EDT 2024
User: DJ
Dark Spectrum Present: No
Reference Spectrum Present: No
Number of Sampled Component Spectra: 1
Spectrometers: JAZA0267
Integration Time (usec): 500000 (JAZA0267)
Spectra Averaged: 1 (JAZA0267)
Boxcar Smoothing: 0 (JAZA0267)
Correct for Electrical Dark: No (JAZA0267)
Strobe/Lamp Enabled: No (JAZA0267)
Correct for Detector Non-linearity: No (JAZA0267)
Correct for Stray Light: No (JAZA0267)
Number of Pixels in Processed Spectrum: 2048
>>>>>Begin Processed Spectral Data<<<<<
340.37	1265.03
340.75	1265.03
341.13	1265.03
341.51	1255.90
341.89	1283.30
342.27	1267.31
342.66	1427.16
343.04	1388.34
343.42	1454.56
343.80	1358.65
344.18	1335.82
344.56	1392.90
344.94	1340.38
345.32	1397.47
345.71	1386.05
346.09	1317.55
346.47	1388.34
346.85	1411.17
347.23	1395.19
347.61	1315.27
347.99	1292.43
348.37	1504.79
348.75	1365.50
349.13	1386.05
349.51	1379.20
349.90	1374.64
350.28	1358.65
350.66	1381.49
351.04	1550.46
351.42	1404.32
351.80	1413.46
352.18	1381.49
352.56	1381.49
352.94	1331.25
353.32	1331.25
353.70	1440.86
354.08	1440.86
354.46	1360.94
354.84	1395.19
355.22	1290.15
355.60	1328.97
355.98	1308.42
356.36	1486.53
356.74	1386.05
357.12	1395.19
357.50	1392.90
357.88	1290.15
358.26	1358.65
358.64	1422.59
359.02	1468.26
359.40	1354.09
359.78	1376.92
360.16	1379.20
360.54	1390.62
360.92	1349.52
361.30	1431.72
361.68	1374.64
362.06	1356.37
362.44	1342.67
362.82	1351.80
363.20	1356.37
363.58	1331.25
363.96	1390.62
364.34	1349.52
364.72	1376.92
365.09	1461.41
365.47	1404.32
365.85	1408.89
366.23	1297.00
366.61	1392.90
366.99	1276.45
367.37	1386.05
367.75	1452.27
368.13	1347.24
368.51	1372.35
368.89	1349.52
369.26	1383.77
369.64	1429.44
370.02	1431.72
370.40	1630.38
370.78	1504.79
371.16	1317.55
371.54	1354.09
371.92	1392.90
372.29	1310.70
372.67	1420.31
373.05	1383.77
373.43	1228.50
373.81	1308.42
374.19	1420.31
374.56	1344.95
374.94	1372.35
375.32	1447.71
375.70	1351.80
376.08	1365.50
376.46	1328.97
376.83	1397.47
377.21	1415.74
377.59	1495.66
377.97	1502.51
378.35	1381.49
378.72	1290.15
379.10	1388.34
379.48	1349.52
379.86	1331.25
380.24	1358.65
380.61	1342.67
380.99	1397.47
381.37	1292.43
381.75	1333.53
382.12	1308.42
382.50	1303.85
382.88	1294.72
383.26	1356.37
383.64	1516.21
384.01	1319.83
384.39	1447.71
384.77	1351.80
385.14	1315.27
385.52	1365.50
385.90	1402.04
386.28	1349.52
386.65	1420.31
387.03	1397.47
387.41	1376.92
387.79	1381.49
388.16	1301.57
388.54	1340.38
388.92	1365.50
389.29	1424.87
389.67	1319.83
390.05	1363.22
390.42	1328.97
390.80	1418.02
391.18	1406.60
391.55	1395.19
391.93	1438.57
392.31	1356.37
392.68	1351.80
393.06	1376.92
393.44	1285.58
393.81	1340.38
394.19	1358.65
394.57	1408.89
394.94	1392.90
395.32	1331.25
395.70	1308.42
396.07	1328.97
396.45	1390.62
396.83	1354.09
397.20	1390.62
397.58	1390.62
397.95	1374.64
398.33	1328.97
398.71	1303.85
399.08	1303.85
399.46	1440.86
399.83	1386.05
400.21	1395.19
400.59	1344.95
400.96	1443.14
401.34	1429.44
401.71	1383.77
402.09	1372.35
402.46	1301.57
402.84	1338.10
403.22	1315.27
403.59	1351.80
403.97	1383.77
404.34	1418.02
404.72	1317.55
405.09	1493.38
405.47	1408.89
405.84	1370.07
406.22	1354.09
406.59	1347.24
406.97	1381.49
407.35	1351.80
407.72	1347.24
408.10	1306.13
408.47	1488.81
408.85	1532.19
409.22	1424.87
409.60	1358.65
409.97	1328.97
410.35	1372.35
410.72	1434.01
411.10	1470.54
411.47	1338.10
411.84	1358.65
412.22	1356.37
412.59	1443.14
412.97	1383.77
413.34	1390.62
413.72	1392.90
414.09	1347.24
414.47	1360.94
414.84	1367.79
415.22	1347.24
415.59	1376.92
415.96	1344.95
416.34	1367.79
416.71	1333.53
417.09	1386.05
417.46	1333.53
417.84	1328.97
418.21	1372.35
418.58	1338.10
418.96	1418.02
419.33	1434.01
419.71	1367.79
420.08	1342.67
420.45	1422.59
420.83	1374.64
421.20	1340.38
421.58	1420.31
421.95	1301.57
422.32	1351.80
422.70	1454.56
423.07	1351.80
423.44	1349.52
423.82	1360.94
424.19	1397.47
424.56	1468.26
424.94	1438.57
425.31	1390.62
425.68	1463.69
426.06	1347.24
426.43	1495.66
426.80	1381.49
427.18	1358.65
427.55	1328.97
427.92	1324.40
428.30	1374.64
428.67	1484.24
429.04	1299.28
429.42	1370.07
429.79	1367.79
430.16	1299.28
430.53	1322.12
430.91	1351.80
431.28	1495.66
431.65	1370.07
432.03	1322.12
432.40	1397.47
432.77	1328.97
433.14	1413.46
433.52	1548.18
433.89	1335.82
434.26	1370.07
434.63	1365.50
435.01	1310.70
435.38	1438.57
435.75	1415.74
436.12	1555.03
436.50	1443.14
436.87	1420.31
437.24	1434.01
437.61	1431.72
437.98	1381.49
438.36	1335.82
438.73	1481.96
439.10	1461.41
439.47	1388.34
439.84	1520.78
440.22	1356.37
440.59	1402.04
440.96	1491.09
441.33	1301.57
441.70	1374.64
442.08	1434.01
442.45	1415.74
442.82	1322.12
443.19	1365.50
443.56	1365.50
443.93	1404.32
444.30	1402.04
444.68	1429.44
445.05	1342.67
445.42	1374.64
445.79	1406.60
446.16	1386.05
446.53	1306.13
446.90	1413.46
447.28	1411.17
447.65	1600.70
448.02	1381.49
448.39	1392.90
448.76	1363.22
449.13	1395.19
449.50	1445.42
449.87	1360.94
450.24	1351.80
450.61	1420.31
450.98	1518.49
451.36	1404.32
451.73	1285.58
452.10	1335.82
452.47	1374.64
452.84	1317.55
453.21	1449.99
453.58	1379.20
453.95	1294.72
454.32	1358.65
454.69	1370.07
455.06	1356.37
455.43	1340.38
455.80	1454.56
456.17	1333.53
456.54	1354.09
456.91	1525.34
457.28	1376.92
457.65	1356.37
458.02	1408.89
458.39	1406.60
458.76	1397.47
459.13	1406.60
459.50	1306.13
459.87	1431.72
460.24	1536.76
460.61	1342.67
460.98	1340.38
461.35	1310.70
461.72	1360.94
462.09	1262.75
462.46	1392.90
462.83	1418.02
463.20	1324.40
463.57	1331.25
463.94	1367.79
464.31	1326.68
464.68	1301.57
465.05	1360.94
465.42	1324.40
465.78	1406.60
466.15	1381.49
466.52	1370.07
466.89	1344.95
467.26	1463.69
467.63	1347.24
468.00	1365.50
468.37	1342.67
468.74	1381.49
469.11	1374.64
469.47	1436.29
469.84	1392.90
470.21	1381.49
470.58	1351.80
470.95	1354.09
471.32	1351.80
471.69	1274.16
472.06	1392.90
472.42	1488.81
472.79	1349.52
473.16	1381.49
473.53	1406.60
473.90	1351.80
474.27	1354.09
474.63	1299.28
475.00	1347.24
475.37	1367.79
475.74	1335.82
476.11	1347.24
476.48	1356.37
476.84	1292.43
477.21	1431.72
477.58	1365.50
477.95	1365.50
478.31	1511.64
478.68	1367.79
479.05	1351.80
479.42	1420.31
479.79	1331.25
480.15	1386.05
480.52	1418.02
480.89	1342.67
481.26	1481.96
481.62	1365.50
481.99	1390.62
482.36	1372.35
482.73	1402.04
483.09	1287.87
483.46	1356.37
483.83	1470.54
484.20	1381.49
484.56	1317.55
484.93	1454.56
485.30	1351.80
485.66	1402.04
486.03	1392.90
486.40	1424.87
486.77	1445.42
487.13	1278.73
487.50	1324.40
487.87	1358.65
488.23	1402.04
488.60	1392.90
488.97	1408.89
489.33	1395.19
489.70	1344.95
490.07	1411.17
490.43	1358.65
490.80	1333.53
491.17	1388.34
491.53	1395.19
491.90	1349.52
492.27	1406.60
492.63	1347.24
493.00	1351.80
493.36	1338.10
493.73	1402.04
494.10	1317.55
494.46	1367.79
494.83	1454.56
495.20	1356.37
495.56	1456.84
495.93	1370.07
496.29	1324.40
496.66	1395.19
497.03	1424.87
497.39	1294.72
497.76	1358.65
498.12	1342.67
498.49	1465.97
498.85	1374.64
499.22	1420.31
499.59	1424.87
499.95	1481.96
500.32	1411.17
500.68	1342.67
501.05	1404.32
501.41	1424.87
501.78	1413.46
502.14	1338.10
502.51	1402.04
502.87	1374.64
503.24	1406.60
503.60	1495.66
503.97	1461.41
504.33	1349.52
504.70	1319.83
505.06	1315.27
505.43	1326.68
505.79	1365.50
506.16	1351.80
506.52	1438.57
506.89	1319.83
507.25	1434.01
507.62	1292.43
507.98	1358.65
508.35	1424.87
508.71	1294.72
509.08	1383.77
509.44	1310.70
509.81	1351.80
510.17	1447.71
510.53	1452.27
510.90	1356.37
511.26	1420.31
511.63	1500.23
511.99	1374.64
512.36	1367.79
512.72	1381.49
513.08	1445.42
513.45	1356.37
513.81	1516.21
514.18	1383.77
514.54	1440.86
514.90	1459.12
515.27	1516.21
515.63	1468.26
516.00	1548.18
516.36	1634.95
516.72	1929.51
517.09	2397.62
517.45	3068.96
517.81	3619.27
518.18	4030.29
518.54	3984.62
518.90	4244.93
519.27	4781.54
519.63	6153.90
519.99	8562.94
520.36	12910.62
520.72	20528.21
521.08	30776.33
521.45	37151.72
521.81	30981.84
522.17	10353.16
522.54	3573.60
522.90	2137.31
523.26	1758.26
523.63	1575.58
523.99	1577.86
524.35	1532.19
524.71	1475.11
525.08	1484.24
525.44	1475.11
525.80	1374.64
526.16	1422.59
526.53	1422.59
526.89	1386.05
527.25	1593.85
527.62	1374.64
527.98	1379.20
528.34	1434.01
528.70	1292.43
529.06	1386.05
529.43	1315.27
529.79	1614.40
530.15	1383.77
530.51	1390.62
530.88	1351.80
531.24	1349.52
531.60	1342.67
531.96	1303.85
532.32	1495.66
532.69	1372.35
533.05	1399.75
533.41	1356.37
533.77	1370.07
534.13	1356.37
534.49	1363.22
534.86	1372.35
535.22	1294.72
535.58	1333.53
535.94	1413.46
536.30	1349.52
536.66	1365.50
537.03	1365.50
537.39	1372.35
537.75	1374.64
538.11	1502.51
538.47	1381.49
538.83	1358.65
539.19	1379.20
539.55	1465.97
539.91	1408.89
540.28	1354.09
540.64	1285.58
541.00	1420.31
541.36	1577.86
541.72	1335.82
542.08	1365.50
542.44	1326.68
542.80	1383.77
543.16	1319.83
543.52	1454.56
543.88	1422.59
544.24	1381.49
544.61	1379.20
544.97	1383.77
545.33	1365.50
545.69	1370.07
546.05	1386.05
546.41	1356.37
546.77	1365.50
547.13	1406.60
547.49	1424.87
547.85	1402.04
548.21	1278.73
548.57	1301.57
548.93	1365.50
549.29	1331.25
549.65	1386.05
550.01	1404.32
550.37	1408.89
550.73	1360.94
551.09	1292.43
551.45	1267.31
551.81	1319.83
552.17	1360.94
552.53	1342.67
552.89	1438.57
553.25	1429.44
553.61	1344.95
553.96	1381.49
554.32	1395.19
554.68	1470.54
555.04	1354.09
555.40	1338.10
555.76	1456.84
556.12	1342.67
556.48	1479.68
556.84	1349.52
557.20	1454.56
557.56	1379.20
557.92	1434.01
558.27	1420.31
558.63	1317.55
558.99	1397.47
559.35	1438.57
559.71	1388.34
560.07	1465.97
560.43	1315.27
560.79	1388.34
561.14	1344.95
561.50	1440.86
561.86	1315.27
562.22	1383.77
562.58	1443.14
562.94	1518.49
563.30	1310.70
563.65	1386.05
564.01	1367.79
564.37	1269.60
564.73	1438.57
565.09	1365.50
565.44	1299.28
565.80	1440.86
566.16	1381.49
566.52	1714.87
566.88	1406.60
567.23	1427.16
567.59	1495.66
567.95	1319.83
568.31	1397.47
568.67	1358.65
569.02	1331.25
569.38	1449.99
569.74	1338.10
570.10	1338.10
570.45	1312.98
570.81	1484.24
571.17	1429.44
571.53	2319.98
571.88	1415.74
572.24	1383.77
572.60	1351.80
572.96	1445.42
573.31	1308.42
573.67	1331.25
574.03	1379.20
574.38	1358.65
574.74	1386.05
575.10	1326.68
575.45	1310.70
575.81	1310.70
576.17	1461.41
576.53	1427.16
576.88	1335.82
577.24	1349.52
577.60	1511.64
577.95	1297.00
578.31	1301.57
578.67	1301.57
579.02	1427.16
579.38	1344.95
579.73	1438.57
580.09	1312.98
580.45	1324.40
580.80	1415.74
581.16	1358.65
581.52	1374.64
581.87	1358.65
582.23	1344.95
582.58	1395.19
582.94	1438.57
583.30	1518.49
583.65	1388.34
584.01	1420.31
584.36	1484.24
584.72	1408.89
585.08	1388.34
585.43	1328.97
585.79	1360.94
586.14	1335.82
586.50	1365.50
586.85	1420.31
587.21	1372.35
587.56	1365.50
587.92	1328.97
588.28	1413.46
588.63	1468.26
588.99	1342.67
589.34	1404.32
589.70	1365.50
590.05	1374.64
590.41	1468.26
590.76	1402.04
591.12	1422.59
591.47	1465.97
591.83	1358.65
592.18	1356.37
592.54	1349.52
592.89	1379.20
593.25	1411.17
593.60	1461.41
593.96	2331.40
594.31	1445.42
594.67	1303.85
595.02	1239.91
595.37	1402.04
595.73	1338.10
596.08	1306.13
596.44	1475.11
596.79	1370.07
597.15	1390.62
597.50	1392.90
597.85	1333.53
598.21	1354.09
598.56	1367.79
598.92	1415.74
599.27	1386.05
599.63	1333.53
599.98	1274.16
600.33	1429.44
600.69	1315.27
601.04	1356.37
601.39	1328.97
601.75	1436.29
602.10	1331.25
602.46	1303.85
602.81	1703.45
603.16	1468.26
603.52	1294.72
603.87	1324.40
604.22	1328.97
604.58	1438.57
604.93	1342.67
605.28	1418.02
605.64	1383.77
605.99	1347.24
606.34	1383.77
606.70	1415.74
607.05	1317.55
607.40	1386.05
607.76	1388.34
608.11	1347.24
608.46	1392.90
608.81	1381.49
609.17	1370.07
609.52	1331.25
609.87	1310.70
610.23	1356.37
610.58	1306.13
610.93	1406.60
611.28	1292.43
611.64	1358.65
611.99	1278.73
612.34	1265.03
612.69	1342.67
613.05	1374.64
613.40	1383.77
613.75	1390.62
614.10	1390.62
614.45	1413.46
614.81	1367.79
615.16	1301.57
615.51	1331.25
615.86	1342.67
616.21	1372.35
616.57	1383.77
616.92	1418.02
617.27	1328.97
617.62	1397.47
617.97	1324.40
618.32	1379.20
618.68	1374.64
619.03	1258.18
619.38	1347.24
619.73	1358.65
620.08	1315.27
620.43	1331.25
620.79	1475.11
621.14	1319.83
621.49	1292.43
621.84	1331.25
622.19	1317.55
622.54	1383.77
622.89	1397.47
623.24	1374.64
623.60	1415.74
623.95	1365.50
624.30	1383.77
624.65	1349.52
625.00	1516.21
625.35	1481.96
625.70	1349.52
626.05	1338.10
626.40	1335.82
626.75	1365.50
627.10	1342.67
627.45	1386.05
627.80	1349.52
628.15	1413.46
628.50	1383.77
628.86	1367.79
629.21	1379.20
629.56	1390.62
629.91	1365.50
630.26	1365.50
630.61	1324.40
630.96	1411.17
631.31	1356.37
631.66	1319.83
632.01	1331.25
632.36	1388.34
632.71	1468.26
633.06	1315.27
633.41	1429.44
633.76	1365.50
634.11	1239.91
634.45	1424.87
634.80	1395.19
635.15	1335.82
635.50	1434.01
635.85	1493.38
636.20	1397.47
636.55	1388.34
636.90	1413.46
637.25	1402.04
637.60	1424.87
637.95	1486.53
638.30	1402.04
638.65	1449.99
639.00	1449.99
639.35	1294.72
639.69	1383.77
640.04	1306.13
640.39	1306.13
640.74	1395.19
641.09	1328.97
641.44	1297.00
641.79	1340.38
642.14	1338.10
642.48	1315.27
642.83	1392.90
643.18	1413.46
643.53	1374.64
643.88	1418.02
644.23	1374.64
644.58	1374.64
644.92	1372.35
645.27	1338.10
645.62	1408.89
645.97	1386.05
646.32	1335.82
646.66	1356.37
647.01	1360.94
647.36	1386.05
647.71	1308.42
648.06	1376.92
648.40	1331.25
648.75	1427.16
649.10	1358.65
649.45	1415.74
649.80	1379.20
650.14	1351.80
650.49	1331.25
650.84	1356.37
651.19	1319.83
651.53	1342.67
651.88	1294.72
652.23	1479.68
652.58	1360.94
652.92	1404.32
653.27	1319.83
653.62	1333.53
653.96	1312.98
654.31	1306.13
654.66	1491.09
655.01	1370.07
655.35	1340.38
655.70	1392.90
656.05	1431.72
656.39	1333.53
656.74	1347.24
657.09	1374.64
657.43	1356.37
657.78	1390.62
658.13	1397.47
658.47	1342.67
658.82	1390.62
659.17	1374.64
659.51	1427.16
659.86	1356.37
660.20	1317.55
660.55	1376.92
660.90	1354.09
661.24	1287.87
661.59	1267.31
661.94	1372.35
662.28	1445.42
662.63	1349.52
662.97	1333.53
663.32	1367.79
663.67	1413.46
664.01	1422.59
664.36	1374.64
664.70	1386.05
665.05	1431.72
665.39	1310.70
665.74	1331.25
666.09	1342.67
666.43	1395.19
666.78	1299.28
667.12	1267.31
667.47	1246.76
667.81	1395.19
668.16	1402.04
668.50	1390.62
668.85	1338.10
669.19	1447.71
669.54	1404.32
669.88	1349.52
670.23	1347.24
670.57	1310.70
670.92	1328.97
671.26	1354.09
671.61	1395.19
671.95	1278.73
672.30	1386.05
672.64	1335.82
672.99	1310.70
673.33	1331.25
673.68	1395.19
674.02	1360.94
674.37	1360.94
674.71	1365.50
675.05	1308.42
675.40	1422.59
675.74	1347.24
676.09	1360.94
676.43	1404.32
676.77	1420.31
677.12	1372.35
677.46	1500.23
677.81	1456.84
678.15	1427.16
678.49	1333.53
678.84	1370.07
679.18	1312.98
679.53	1331.25
679.87	1370.07
680.21	1283.30
680.56	1344.95
680.90	1374.64
681.24	1404.32
681.59	1402.04
681.93	1424.87
682.27	1461.41
682.62	1349.52
682.96	1404.32
683.30	1333.53
683.65	1299.28
683.99	1338.10
684.33	1301.57
684.68	1299.28
685.02	1349.52
685.36	1331.25
685.71	1397.47
686.05	1392.90
686.39	1315.27
686.73	1477.39
687.08	1561.88
687.42	1395.19
687.76	1283.30
688.11	1386.05
688.45	1376.92
688.79	1438.57
689.13	1395.19
689.48	1372.35
689.82	1358.65
690.16	1358.65
690.50	1383.77
690.84	1372.35
691.19	1351.80
691.53	1493.38
691.87	1370.07
692.21	1322.12
692.56	1335.82
692.90	1367.79
693.24	1308.42
693.58	1354.09
693.92	1324.40
694.26	1324.40
694.61	1438.57
694.95	1406.60
695.29	1342.67
695.63	1418.02
695.97	1372.35
696.31	1415.74
696.66	1303.85
697.00	1420.31
697.34	1418.02
697.68	1415.74
698.02	1331.25
698.36	1397.47
698.70	1511.64
699.04	1404.32
699.39	1420.31
699.73	1317.55
700.07	1367.79
700.41	1404.32
700.75	1354.09
701.09	1356.37
701.43	1388.34
701.77	1344.95
702.11	1338.10
702.45	1331.25
702.79	1328.97
703.13	1390.62
703.47	1452.27
703.82	1397.47
704.16	1413.46
704.50	1438.57
704.84	1306.13
705.18	1365.50
705.52	1354.09
705.86	1411.17
706.20	1335.82
706.54	1420.31
706.88	1317.55
707.22	1365.50
707.56	1402.04
707.90	1486.53
708.24	1312.98
708.58	1315.27
708.92	1388.34
709.26	1324.40
709.60	1317.55
709.94	1365.50
710.28	1424.87
710.61	1402.04
710.95	1459.12
711.29	1397.47
711.63	1335.82
711.97	1356.37
712.31	1356.37
712.65	1226.21
712.99	1365.50
713.33	1388.34
713.67	1392.90
714.01	1308.42
714.35	1306.13
714.69	1415.74
715.02	1344.95
715.36	1312.98
715.70	1356.37
716.04	1367.79
716.38	1459.12
716.72	1388.34
717.06	1424.87
717.40	1315.27
717.73	1481.96
718.07	1306.13
718.41	1406.60
718.75	1415.74
719.09	1470.54
719.43	1390.62
719.76	1363.22
720.10	1470.54
720.44	1319.83
720.78	1333.53
721.12	1328.97
721.45	1340.38
721.79	1356.37
722.13	1365.50
722.47	1276.45
722.81	1356.37
723.14	2454.71
723.48	1541.33
723.82	1422.59
724.16	1427.16
724.49	1372.35
724.83	1340.38
725.17	1411.17
725.51	1392.90
725.84	1415.74
726.18	1431.72
726.52	1465.97
726.86	1358.65
727.19	1383.77
727.53	1449.99
727.87	1356.37
728.20	1331.25
728.54	1365.50
728.88	1486.53
729.22	1344.95
729.55	1388.34
729.89	1312.98
730.23	1367.79
730.56	1402.04
730.90	1500.23
731.24	1443.14
731.57	1299.28
731.91	1431.72
732.25	1351.80
732.58	1367.79
732.92	1360.94
733.25	1363.22
733.59	1388.34
733.93	1347.24
734.26	1367.79
734.60	1374.64
734.94	1367.79
735.27	1379.20
735.61	1415.74
735.94	1344.95
736.28	1326.68
736.62	1465.97
736.95	1319.83
737.29	1372.35
737.62	1411.17
737.96	1333.53
738.29	1303.85
738.63	1276.45
738.97	1301.57
739.30	1354.09
739.64	1312.98
739.97	1315.27
740.31	1390.62
740.64	1358.65
740.98	1301.57
741.31	1344.95
741.65	1434.01
741.98	1344.95
742.32	1376.92
742.65	1374.64
742.99	1415.74
743.32	1356.37
743.66	1344.95
743.99	1402.04
744.33	1317.55
744.66	1381.49
745.00	1363.22
745.33	1422.59
745.67	1379.20
746.00	1317.55
746.33	1249.05
746.67	1525.34
747.00	1365.50
747.34	1415.74
747.67	1443.14
748.01	1319.83
748.34	1402.04
748.67	1541.33
749.01	1445.42
749.34	1372.35
749.68	1406.60
750.01	1297.00
750.34	1308.42
750.68	1328.97
751.01	1390.62
751.35	1468.26
751.68	1324.40
752.01	1363.22
752.35	1308.42
752.68	1326.68
753.01	1358.65
753.35	1374.64
753.68	1397.47
754.01	1529.91
754.35	1470.54
754.68	1367.79
755.01	1319.83
755.35	1292.43
755.68	1315.27
756.01	1278.73
756.35	1395.19
756.68	1278.73
757.01	1379.20
757.34	1340.38
757.68	1340.38
758.01	1292.43
758.34	1413.46
758.68	1408.89
759.01	1335.82
759.34	1402.04
759.67	1399.75
760.01	1299.28
760.34	1376.92
760.67	1461.41
761.00	1308.42
761.33	1397.47
761.67	1475.11
762.00	1358.65
762.33	1543.61
762.66	1388.34
763.00	1367.79
763.33	1470.54
763.66	1408.89
763.99	1333.53
764.32	1438.57
764.65	1415.74
764.99	1349.52
765.32	1429.44
765.65	1370.07
765.98	1383.77
766.31	1525.34
766.64	1605.26
766.98	1342.67
767.31	1354.09
767.64	1488.81
767.97	1413.46
768.30	1285.58
768.63	1383.77
768.96	1328.97
769.29	1552.75
769.63	1456.84
769.96	1468.26
770.29	1447.71
770.62	1397.47
770.95	1363.22
771.28	1386.05
771.61	1406.60
771.94	1312.98
772.27	1445.42
772.60	1328.97
772.93	1356.37
773.26	1420.31
773.59	1402.04
773.92	1456.84
774.26	1402.04
774.59	1390.62
774.92	1488.81
775.25	1370.07
775.58	1408.89
775.91	1354.09
776.24	1331.25
776.57	1331.25
776.90	1424.87
777.23	1507.08
777.56	1413.46
777.89	1312.98
778.22	1351.80
778.55	1511.64
778.87	1308.42
779.20	1408.89
779.53	1443.14
779.86	1319.83
780.19	1404.32
780.52	1404.32
780.85	1335.82
781.18	1500.23
781.51	1365.50
781.84	1406.60
782.17	1477.39
782.50	1463.69
782.83	1267.31
783.16	1331.25
783.48	1365.50
783.81	1347.24
784.14	1365.50
784.47	1267.31
784.80	1392.90
785.13	1349.52
785.46	1376.92
785.79	1344.95
786.11	1386.05
786.44	1365.50
786.77	1319.83
787.10	1342.67
787.43	1294.72
787.76	1374.64
788.09	1287.87
788.41	1347.24
788.74	1418.02
789.07	1351.80
789.40	1310.70
789.73	1365.50
790.05	1367.79
790.38	1351.80
790.71	1358.65
791.04	1459.12
791.37	1379.20
791.69	1340.38
792.02	1386.05
792.35	1443.14
792.68	1406.60
793.00	1388.34
793.33	1324.40
793.66	1312.98
793.99	1424.87
794.31	1297.00
794.64	1338.10
794.97	1445.42
795.29	1347.24
795.62	1447.71
795.95	1424.87
796.28	1456.84
796.60	1390.62
796.93	1360.94
797.26	1312.98
797.58	1418.02
797.91	1395.19
798.24	1283.30
798.56	1342.67
798.89	1397.47
799.22	1333.53
799.54	1418.02
799.87	1440.86
800.20	1367.79
800.52	1317.55
800.85	1511.64
801.17	1370.07
801.50	1351.80
801.83	1374.64
802.15	1283.30
802.48	1427.16
802.81	1424.87
803.13	1331.25
803.46	1443.14
803.78	1349.52
804.11	1392.90
804.43	1477.39
804.76	1333.53
805.09	1443.14
805.41	1443.14
805.74	1445.42
806.06	1376.92
806.39	1338.10
806.71	1349.52
807.04	1392.90
807.36	1376.92
807.69	1335.82
808.01	1360.94
808.34	1338.10
808.67	1411.17
808.99	1459.12
809.32	1392.90
809.64	1317.55
809.97	1392.90
810.29	1294.72
810.61	1418.02
810.94	1397.47
811.26	1335.82
811.59	1397.47
811.91	1502.51
812.24	1392.90
812.56	1388.34
812.89	1331.25
813.21	1502.51
813.54	1379.20
813.86	1488.81
814.18	1358.65
814.51	1351.80
814.83	1374.64
815.16	1518.49
815.48	1342.67
815.80	1335.82
816.13	1395.19
816.45	1386.05
816.78	1303.85
817.10	1324.40
817.42	1411.17
817.75	1324.40
818.07	1203.38
818.39	1299.28
818.72	1360.94
819.04	1463.69
819.37	1360.94
819.69	1406.60
820.01	1413.46
820.33	1365.50
820.66	1312.98
820.98	1322.12
821.30	1340.38
821.63	1306.13
821.95	1406.60
822.27	1338.10
822.60	1379.20
822.92	1328.97
823.24	1317.55
823.56	1438.57
823.89	1402.04
824.21	1365.50
824.53	1303.85
824.86	1335.82
825.18	1312.98
825.50	1374.64
825.82	1381.49
826.15	1333.53
826.47	1422.59
826.79	1338.10
827.11	1303.85
827.43	1317.55
827.76	1370.07
828.08	1449.99
828.40	1392.90
828.72	1356.37
829.04	1415.74
829.37	1310.70
829.69	1349.52
830.01	1363.22
830.33	1372.35
830.65	1356.37
830.97	1324.40
831.30	1388.34
831.62	1324.40
831.94	1411.17
832.26	1411.17
832.58	1379.20
832.90	1344.95
833.22	1374.64
833.55	1379.20
833.87	1571.01
834.19	1402.04
834.51	1388.34
834.83	1324.40
835.15	1415.74
835.47	1333.53
835.79	1532.19
836.11	1397.47
836.43	1408.89
836.75	1431.72
837.07	1360.94
837.40	1379.20
837.72	1390.62
838.04	1301.57
838.36	1285.58
838.68	1461.41
839.00	1351.80
839.32	1354.09
839.64	1397.47
839.96	1251.33
840.28	1509.36
840.60	1399.75
840.92	1406.60
841.24	1258.18
841.56	1303.85
841.88	1356.37
842.20	1447.71
842.52	1312.98
842.84	1418.02
843.16	1354.09
843.48	1449.99
843.80	1335.82
844.11	1413.46
844.43	1269.60
844.75	1333.53
845.07	1374.64
845.39	1292.43
845.71	1443.14
846.03	1427.16
846.35	1315.27
846.67	1422.59
846.99	1445.42
847.31	1342.67
847.63	1340.38
847.94	1328.97
848.26	1415.74
848.58	1358.65
848.90	1367.79
849.22	1349.52
849.54	1328.97
849.86	1431.72
850.17	1354.09
850.49	1310.70
850.81	1370.07
851.13	1326.68
851.45	1402.04
851.77	1328.97
852.08	1452.27
852.40	1297.00
852.72	1324.40
853.04	1454.56
853.36	1543.61
853.67	1395.19
853.99	1612.12
854.31	1443.14
854.63	1427.16
854.95	1381.49
855.26	1328.97
855.58	1331.25
855.90	1459.12
856.22	1395.19
856.53	1322.12
856.85	1297.00
857.17	1507.08
857.48	1344.95
857.80	1431.72
858.12	1376.92
858.44	1328.97
858.75	1372.35
859.07	1383.77
859.39	1461.41
859.70	1461.41
860.02	1431.72
860.34	1465.97
860.65	1271.88
860.97	1418.02
861.29	1294.72
861.60	1443.14
861.92	1292.43
862.24	1392.90
862.55	1413.46
862.87	1363.22
863.19	1367.79
863.50	1342.67
863.82	1319.83
864.14	1374.64
864.45	1370.07
864.77	1395.19
865.08	1523.06
865.40	1287.87
865.72	1255.90
866.03	1338.10
866.35	1283.30
866.66	1379.20
866.98	1447.71
867.29	1342.67
867.61	1424.87
867.93	1420.31
868.24	2082.51
868.56	1525.34
868.87	1404.32
869.19	1406.60
869.50	1372.35
869.82	1358.65
870.13	1271.88
870.45	1351.80
870.76	1324.40
871.08	1301.57
871.39	1342.67
871.71	1367.79
872.02	1292.43
872.34	1292.43
872.65	1374.64
872.97	1303.85
873.28	1299.28
873.60	1402.04
873.91	1413.46
874.22	1356.37
874.54	1402.04
874.85	1269.60
875.17	1347.24
875.48	1475.11
875.80	1381.49
876.11	1297.00
876.42	1328.97
876.74	1317.55
877.05	1360.94
877.37	1278.73
877.68	1324.40
877.99	1406.60
878.31	1340.38
878.62	1365.50
878.94	1406.60
879.25	1431.72
879.56	1372.35
879.88	1356.37
880.19	1461.41
880.50	1376.92
880.82	1438.57
881.13	1235.35
881.44	1372.35
881.76	1372.35
882.07	1413.46
882.38	1413.46
882.70	1319.83
883.01	1347.24
883.32	1331.25
883.63	1356.37
883.95	1392.90
884.26	1438.57
884.57	1408.89
884.89	1356.37
885.20	1545.90
885.51	1374.64
885.82	1374.64
886.14	1374.64
886.45	1338.10
886.76	1427.16
887.07	1324.40
887.38	1363.22
887.70	1267.31
888.01	1381.49
888.32	1351.80
888.63	1335.82
888.95	1262.75
889.26	1402.04
889.57	1381.49
889.88	1415.74
890.19	1349.52
890.50	1388.34
890.82	1349.52
891.13	1484.24
891.44	1438.57
891.75	1306.13
892.06	1292.43
892.37	1283.30
892.68	1495.66
893.00	1408.89
893.31	1431.72
893.62	1438.57
893.93	1413.46
894.24	1392.90
894.55	1404.32
894.86	1445.42
895.17	1438.57
895.48	1461.41
895.79	1333.53
896.11	1418.02
896.42	1422.59
896.73	1495.66
897.04	1404.32
897.35	1360.94
897.66	1376.92
897.97	1386.05
898.28	1308.42
898.59	1413.46
898.90	1449.99
899.21	1418.02
899.52	1360.94
899.83	1299.28
900.14	1349.52
900.45	1360.94
900.76	1301.57
901.07	1308.42
901.38	1356.37
901.69	1479.68
902.00	1360.94
902.31	1349.52
902.62	1422.59
902.93	1365.50
903.24	1445.42
903.55	1504.79
903.86	1413.46
904.17	1388.34
904.47	1347.24
904.78	1402.04
905.09	1420.31
905.40	1358.65
905.71	1299.28
906.02	1564.16
906.33	1418.02
906.64	1445.42
906.95	1539.04
907.26	1358.65
907.56	1653.22
907.87	1392.90
908.18	1443.14
908.49	1443.14
908.80	1381.49
909.11	1454.56
909.42	1484.24
909.72	1493.38
910.03	1381.49
910.34	1386.05
910.65	1258.18
910.96	1379.20
911.26	1292.43
911.57	1440.86
911.88	1317.55
912.19	1415.74
912.50	1358.65
912.80	1402.04
913.11	1294.72
913.42	1370.07
913.73	1402.04
914.04	1440.86
914.34	1465.97
914.65	1424.87
914.96	1413.46
915.26	1360.94
915.57	1388.34
915.88	1342.67
916.19	1406.60
916.49	1374.64
916.80	1338.10
917.11	1475.11
917.41	1427.16
917.72	1360.94
918.03	1390.62
918.34	1402.04
918.64	1349.52
918.95	1404.32
919.26	1477.39
919.56	1402.04
919.87	1459.12
920.18	1326.68
920.48	1411.17
920.79	1420.31
921.09	1420.31
921.40	1360.94
921.71	1402.04
922.01	1447.71
922.32	1390.62
922.63	1381.49
922.93	1301.57
923.24	1411.17
923.54	1354.09
923.85	1338.10
924.15	1335.82
924.46	1315.27
924.77	1381.49
925.07	1434.01
925.38	1463.69
925.68	1395.19
925.99	1386.05
926.29	1331.25
926.60	1326.68
926.90	1356.37
927.21	1491.09
927.51	1354.09
927.82	1365.50
928.12	1347.24
928.43	1459.12
928.73	1365.50
929.04	1312.98
929.34	1376.92
929.65	1370.07
929.95	1376.92
930.26	1338.10
930.56	1438.57
930.87	1397.47
931.17	1447.71
931.48	1376.92
931.78	1297.00
932.09	1255.90
932.39	1404.32
932.69	1365.50
933.00	1297.00
933.30	1402.04
933.61	1415.74
933.91	1328.97
934.21	1397.47
934.52	1497.94
934.82	1367.79
935.13	1376.92
935.43	1392.90
935.73	1303.85
936.04	1406.60
936.34	1507.08
936.64	1397.47
936.95	1331.25
937.25	1440.86
937.55	1459.12
937.86	1411.17
938.16	1338.10
938.46	1299.28
938.77	1292.43
939.07	1404.32
939.37	1383.77
939.68	1365.50
939.98	1360.94
940.28	1434.01
940.58	1488.81
940.89	1449.99
941.19	1408.89
941.49	1392.90
941.80	1379.20
942.10	1379.20
942.40	1358.65
942.70	1468.26
943.01	1328.97
943.31	1406.60
943.61	1386.05
943.91	1365.50
944.21	1340.38
944.52	1292.43
944.82	1367.79
945.12	1386.05
945.42	1404.32
945.72	1344.95
946.03	1342.67
946.33	1342.67
946.63	1374.64
946.93	1360.94
947.23	1328.97
947.53	1347.24
947.84	1290.15
948.14	1354.09
948.44	1308.42
948.74	1527.63
949.04	1383.77
949.34	1324.40
949.64	1411.17
949.94	1372.35
950.24	1354.09
950.55	1365.50
950.85	1395.19
951.15	1349.52
951.45	1520.78
951.75	1365.50
952.05	1358.65
952.35	1338.10
952.65	1397.47
952.95	1395.19
953.25	1422.59
953.55	1445.42
953.85	1431.72
954.15	1404.32
954.45	1365.50
954.75	1481.96
955.05	1374.64
955.35	1424.87
955.65	1427.16
955.95	1290.15
956.25	1340.38
956.55	1347.24
956.85	1427.16
957.15	1347.24
957.45	1415.74
957.75	1351.80
958.05	1376.92
958.35	1420.31
958.65	1386.05
958.95	1319.83
959.25	1402.04
959.55	1379.20
959.85	1308.42
960.15	1358.65
960.45	1356.37
960.74	1475.11
961.04	1397.47
961.34	1328.97
961.64	1344.95
961.94	1408.89
962.24	1351.80
962.54	1497.94
962.84	1324.40
963.13	1406.60
963.43	1402.04
963.73	1351.80
964.03	1459.12
964.33	1326.68
964.63	1319.83
964.93	1372.35
965.22	1383.77
965.52	1424.87
965.82	1370.07
966.12	1390.62
966.42	1276.45
966.71	1267.31
967.01	1308.42
967.31	1383.77
967.61	1411.17
967.90	1356.37
968.20	1438.57
968.50	1351.80
968.80	1340.38
969.09	1365.50
969.39	1424.87
969.69	1386.05
969.99	1511.64
970.28	1310.70
970.58	1322.12
970.88	1625.82
971.18	1376.92
971.47	1356.37
971.77	1374.64
972.07	1338.10
972.36	1381.49
972.66	1390.62
972.96	1365.50
973.25	1402.04
973.55	1529.91
973.85	1429.44
974.14	1344.95
974.44	1349.52
974.74	1306.13
975.03	1370.07
975.33	1310.70
975.62	1386.05
975.92	1388.34
976.22	1429.44
976.51	1418.02
976.81	1342.67
977.10	1344.95
977.40	1312.98
977.70	1340.38
977.99	1440.86
978.29	1363.22
978.58	1365.50
978.88	1381.49
979.17	1468.26
979.47	1447.71
979.77	1468.26
980.06	1372.35
980.36	1388.34
980.65	1605.26
980.95	1363.22
981.24	1395.19
981.54	1347.24
981.83	1402.04
982.13	1408.89
982.42	1317.55
982.72	1340.38
983.01	1500.23
983.31	1328.97
983.60	1367.79
983.89	1390.62
984.19	1513.93
984.48	1392.90
984.78	1447.71
985.07	1456.84
985.37	1440.86
985.66	1347.24
985.96	1315.27
986.25	1328.97
986.54	1356.37
986.84	1381.49
987.13	1354.09
987.43	1365.50
987.72	1260.46
988.01	1365.50
988.31	1312.98
988.60	1431.72
988.89	1365.50
989.19	1529.91
989.48	1340.38
989.77	1283.30
990.07	1370.07
990.36	1443.14
990.65	1374.64
990.95	1381.49
991.24	1344.95
991.53	1351.80
991.83	1351.80
992.12	1502.51
992.41	1392.90
992.71	1429.44
993.00	1434.01
993.29	1347.24
993.58	1315.27
993.88	1315.27
994.17	1388.34
994.46	1360.94
994.75	1372.35
995.05	1331.25
995.34	1383.77
995.63	1347.24
995.92	1328.97
996.22	1344.95
996.51	1411.17
996.80	1431.72
997.09	1376.92
997.38	1310.70
997.68	1411.17
997.97	1367.79
998.26	1324.40
998.55	1406.60
998.84	1408.89
999.13	1383.77
999.43	1413.46
999.72	1347.24
1000.01	1408.89
1000.30	1319.83
1000.59	1388.34
1000.88	1395.19
1001.17	1310.70
1001.47	1317.55
1001.76	1360.94
1002.05	1365.50
1002.34	1420.31
1002.63	1349.52
1002.92	1328.97
1003.21	1292.43
1003.50	1333.53
1003.79	1397.47
1004.08	1582.43
1004.37	1349.52
1004.66	1447.71
1004.95	1372.35
1005.25	1328.97
1005.54	1370.07
1005.83	1344.95
1006.12	1319.83
1006.41	1303.85
1006.70	1388.34
1006.99	1344.95
1007.28	1342.67
1007.57	1402.04
1007.86	1349.52
1008.15	1356.37
1008.44	1379.20
1008.73	1267.31
1009.01	1381.49
1009.30	1370.07
1009.59	1290.15
1009.88	1408.89
1010.17	1422.59
1010.46	1420.31
1010.75	1322.12
1011.04	1324.40
1011.33	1459.12
1011.62	1518.49
1011.91	1434.01
1012.20	1388.34
1012.49	1413.46
1012.77	1449.99
1013.06	1349.52
1013.35	1349.52
1013.64	1518.49
1013.93	1317.55
1014.22	1358.65
1014.51	1404.32
1014.80	1294.72
1015.08	1356.37
1015.37	1392.90
1015.66	1386.05
1015.95	1406.60
1016.24	1395.19
1016.52	1292.43
1016.81	1449.99
1017.10	1420.31
1017.39	1429.44
1017.68	1459.12
1017.96	1283.30
1018.25	1459.12
1018.54	1413.46
1018.83	1408.89
1019.12	1438.57
1019.40	1429.44
1019.69	1543.61
1019.98	1402.04
1020.26	1367.79
1020.55	1312.98
1020.84	1395.19
1021.13	1420.31
1021.41	1306.13
1021.70	1354.09
1021.99	1356.37
1022.27	1356.37
1022.56	1312.98
1022.85	1328.97
1023.14	1548.18
1023.42	1278.73
1023.71	1397.47
1024.00	1342.67
1024.28	1344.95
1024.57	1319.83
1024.85	1440.86
1025.14	1331.25
1025.43	1392.90
1025.71	1399.75
1026.00	1404.32
1026.29	1344.95
1026.57	1372.35
1026.86	1331.25
1027.14	1429.44
1027.43	1402.04
1027.72	1463.69
1028.00	1365.50
1028.29	1290.15
1028.57	1447.71
1028.86	1424.87
1029.14	1465.97
1029.43	1431.72
1029.71	1420.31
1030.00	1354.09
1030.28	1491.09
1030.57	1374.64
1030.86	1344.95
1031.14	1456.84
>>>>>End Processed Spectral Data<<<<<
