Y (ang)	Ec (eV)	Ev (eV)	E (V/cm)	Ef (eV)	n (cm-3)	p (cm-3)	Nd - Na (cm-3)
 0.000000e+00	 1.44539882e+00	 3.20879592e-01	-4.20805889e+01	 5.00000000e-01	 3.7170e+03	 1.0003e+16	-1.0000e+16
 1.000000e+01	 1.44539461e+00	 3.20875384e-01	-4.20532373e+01	 5.00000000e-01	 3.7176e+03	 1.0002e+16	-1.0000e+16
 2.000000e+01	 1.44539041e+00	 3.20871179e-01	-4.20506237e+01	 5.00000000e-01	 3.7182e+03	 1.0000e+16	-1.0000e+16
 3.000000e+01	 1.44538620e+00	 3.20866974e-01	-4.20727425e+01	 5.00000000e-01	 3.7188e+03	 9.9985e+15	-1.0000e+16
 4.000000e+01	 1.44538200e+00	 3.20862767e-01	-4.21196027e+01	 5.00000000e-01	 3.7195e+03	 9.9969e+15	-1.0000e+16
 5.000000e+01	 1.44537779e+00	 3.20858555e-01	-4.21912278e+01	 5.00000000e-01	 3.7201e+03	 9.9953e+15	-1.0000e+16
 6.000000e+01	 1.44537357e+00	 3.20854335e-01	-4.22876559e+01	 5.00000000e-01	 3.7207e+03	 9.9937e+15	-1.0000e+16
 7.000000e+01	 1.44536934e+00	 3.20850107e-01	-4.24089397e+01	 5.00000000e-01	 3.7213e+03	 9.9920e+15	-1.0000e+16
 8.000000e+01	 1.44536510e+00	 3.20845866e-01	-4.25551462e+01	 5.00000000e-01	 3.7219e+03	 9.9904e+15	-1.0000e+16
 9.000000e+01	 1.44536084e+00	 3.20841610e-01	-4.27263575e+01	 5.00000000e-01	 3.7225e+03	 9.9887e+15	-1.0000e+16
 1.000000e+02	 1.44535657e+00	 3.20837338e-01	-4.29226698e+01	 5.00000000e-01	 3.7231e+03	 9.9871e+15	-1.0000e+16
 1.100000e+02	 1.44535228e+00	 3.20833045e-01	-4.31441943e+01	 5.00000000e-01	 3.7237e+03	 9.9854e+15	-1.0000e+16
 1.200000e+02	 1.44534796e+00	 3.20828731e-01	-4.33910570e+01	 5.00000000e-01	 3.7244e+03	 9.9838e+15	-1.0000e+16
 1.300000e+02	 1.44534362e+00	 3.20824392e-01	-4.36633986e+01	 5.00000000e-01	 3.7250e+03	 9.9821e+15	-1.0000e+16
 1.400000e+02	 1.44533926e+00	 3.20820025e-01	-4.39613747e+01	 5.00000000e-01	 3.7256e+03	 9.9804e+15	-1.0000e+16
 1.500000e+02	 1.44533486e+00	 3.20815629e-01	-4.42851558e+01	 5.00000000e-01	 3.7262e+03	 9.9787e+15	-1.0000e+16
 1.600000e+02	 1.44533043e+00	 3.20811201e-01	-4.46349275e+01	 5.00000000e-01	 3.7269e+03	 9.9770e+15	-1.0000e+16
 1.700000e+02	 1.44532597e+00	 3.20806737e-01	-4.50108907e+01	 5.00000000e-01	 3.7275e+03	 9.9753e+15	-1.0000e+16
 1.800000e+02	 1.44532147e+00	 3.20802236e-01	-4.54132613e+01	 5.00000000e-01	 3.7282e+03	 9.9735e+15	-1.0000e+16
 1.900000e+02	 1.44531693e+00	 3.20797695e-01	-4.58422709e+01	 5.00000000e-01	 3.7288e+03	 9.9718e+15	-1.0000e+16
 2.000000e+02	 1.44531234e+00	 3.20793111e-01	-4.62981661e+01	 5.00000000e-01	 3.7295e+03	 9.9700e+15	-1.0000e+16
 2.100000e+02	 1.44530771e+00	 3.20788481e-01	-4.67812098e+01	 5.00000000e-01	 3.7302e+03	 9.9682e+15	-1.0000e+16
 2.200000e+02	 1.44530303e+00	 3.20783803e-01	-4.72916800e+01	 5.00000000e-01	 3.7308e+03	 9.9664e+15	-1.0000e+16
 2.300000e+02	 1.44529830e+00	 3.20779074e-01	-4.78298711e+01	 5.00000000e-01	 3.7315e+03	 9.9646e+15	-1.0000e+16
 2.400000e+02	 1.44529352e+00	 3.20774291e-01	-4.83960934e+01	 5.00000000e-01	 3.7322e+03	 9.9628e+15	-1.0000e+16
 2.500000e+02	 1.44528868e+00	 3.20769451e-01	-4.89906734e+01	 5.00000000e-01	 3.7329e+03	 9.9609e+15	-1.0000e+16
 2.600000e+02	 1.44528378e+00	 3.20764552e-01	-4.96139541e+01	 5.00000000e-01	 3.7336e+03	 9.9590e+15	-1.0000e+16
 2.700000e+02	 1.44527882e+00	 3.20759591e-01	-5.02662951e+01	 5.00000000e-01	 3.7343e+03	 9.9571e+15	-1.0000e+16
 2.800000e+02	 1.44527379e+00	 3.20754564e-01	-5.09480729e+01	 5.00000000e-01	 3.7351e+03	 9.9552e+15	-1.0000e+16
 2.900000e+02	 1.44526870e+00	 3.20749469e-01	-5.16596808e+01	 5.00000000e-01	 3.7358e+03	 9.9532e+15	-1.0000e+16
 3.000000e+02	 1.44526353e+00	 3.20744303e-01	-5.24015295e+01	 5.00000000e-01	 3.7365e+03	 9.9512e+15	-1.0000e+16
 3.100000e+02	 1.44525829e+00	 3.20739063e-01	-5.31740471e+01	 5.00000000e-01	 3.7373e+03	 9.9492e+15	-1.0000e+16
 3.200000e+02	 1.44525298e+00	 3.20733746e-01	-5.39776793e+01	 5.00000000e-01	 3.7381e+03	 9.9472e+15	-1.0000e+16
 3.300000e+02	 1.44524758e+00	 3.20728348e-01	-5.48128900e+01	 5.00000000e-01	 3.7388e+03	 9.9451e+15	-1.0000e+16
 3.400000e+02	 1.44524210e+00	 3.20722867e-01	-5.56801608e+01	 5.00000000e-01	 3.7396e+03	 9.9430e+15	-1.0000e+16
 3.500000e+02	 1.44523653e+00	 3.20717298e-01	-5.65799922e+01	 5.00000000e-01	 3.7404e+03	 9.9408e+15	-1.0000e+16
 3.600000e+02	 1.44523087e+00	 3.20711640e-01	-5.75129032e+01	 5.00000000e-01	 3.7413e+03	 9.9386e+15	-1.0000e+16
 3.700000e+02	 1.44522512e+00	 3.20705889e-01	-5.84794317e+01	 5.00000000e-01	 3.7421e+03	 9.9364e+15	-1.0000e+16
 3.800000e+02	 1.44521927e+00	 3.20700041e-01	-5.94801351e+01	 5.00000000e-01	 3.7429e+03	 9.9342e+15	-1.0000e+16
 3.900000e+02	 1.44521332e+00	 3.20694093e-01	-6.05155902e+01	 5.00000000e-01	 3.7438e+03	 9.9319e+15	-1.0000e+16
 4.000000e+02	 1.44520727e+00	 3.20688042e-01	-6.15863938e+01	 5.00000000e-01	 3.7447e+03	 9.9296e+15	-1.0000e+16
 4.100000e+02	 1.44520111e+00	 3.20681883e-01	-6.26931629e+01	 5.00000000e-01	 3.7456e+03	 9.9272e+15	-1.0000e+16
 4.200000e+02	 1.44519484e+00	 3.20675614e-01	-6.38365351e+01	 5.00000000e-01	 3.7465e+03	 9.9248e+15	-1.0000e+16
 4.300000e+02	 1.44518846e+00	 3.20669230e-01	-6.50171687e+01	 5.00000000e-01	 3.7474e+03	 9.9224e+15	-1.0000e+16
 4.400000e+02	 1.44518196e+00	 3.20662728e-01	-6.62357434e+01	 5.00000000e-01	 3.7483e+03	 9.9199e+15	-1.0000e+16
 4.500000e+02	 1.44517534e+00	 3.20656105e-01	-6.74929606e+01	 5.00000000e-01	 3.7493e+03	 9.9173e+15	-1.0000e+16
 4.600000e+02	 1.44516859e+00	 3.20649355e-01	-6.87895435e+01	 5.00000000e-01	 3.7503e+03	 9.9147e+15	-1.0000e+16
 4.700000e+02	 1.44516171e+00	 3.20642477e-01	-7.01262377e+01	 5.00000000e-01	 3.7513e+03	 9.9121e+15	-1.0000e+16
 4.800000e+02	 1.44515469e+00	 3.20635464e-01	-7.15038118e+01	 5.00000000e-01	 3.7523e+03	 9.9094e+15	-1.0000e+16
 4.900000e+02	 1.44514754e+00	 3.20628314e-01	-7.29230574e+01	 5.00000000e-01	 3.7533e+03	 9.9067e+15	-1.0000e+16
 5.000000e+02	 1.44514025e+00	 3.20621021e-01	-7.43847897e+01	 5.00000000e-01	 3.7544e+03	 9.9039e+15	-1.0000e+16
 5.100000e+02	 1.44513281e+00	 3.20613583e-01	-7.58898479e+01	 5.00000000e-01	 3.7555e+03	 9.9010e+15	-1.0000e+16
 5.200000e+02	 1.44512522e+00	 3.20605994e-01	-7.74390960e+01	 5.00000000e-01	 3.7566e+03	 9.8981e+15	-1.0000e+16
 5.300000e+02	 1.44511748e+00	 3.20598250e-01	-7.90334226e+01	 5.00000000e-01	 3.7577e+03	 9.8952e+15	-1.0000e+16
 5.400000e+02	 1.44510958e+00	 3.20590347e-01	-8.06737420e+01	 5.00000000e-01	 3.7589e+03	 9.8921e+15	-1.0000e+16
 5.500000e+02	 1.44510151e+00	 3.20582279e-01	-8.23609940e+01	 5.00000000e-01	 3.7600e+03	 9.8890e+15	-1.0000e+16
 5.600000e+02	 1.44509327e+00	 3.20574043e-01	-8.40961454e+01	 5.00000000e-01	 3.7612e+03	 9.8859e+15	-1.0000e+16
 5.700000e+02	 1.44508486e+00	 3.20565633e-01	-8.58801893e+01	 5.00000000e-01	 3.7624e+03	 9.8827e+15	-1.0000e+16
 5.800000e+02	 1.44507628e+00	 3.20557045e-01	-8.77141467e+01	 5.00000000e-01	 3.7637e+03	 9.8794e+15	-1.0000e+16
 5.900000e+02	 1.44506750e+00	 3.20548274e-01	-8.95990662e+01	 5.00000000e-01	 3.7650e+03	 9.8760e+15	-1.0000e+16
 6.000000e+02	 1.44505854e+00	 3.20539314e-01	-9.15360253e+01	 5.00000000e-01	 3.7663e+03	 9.8726e+15	-1.0000e+16
 6.100000e+02	 1.44504939e+00	 3.20530160e-01	-9.35261302e+01	 5.00000000e-01	 3.7676e+03	 9.8691e+15	-1.0000e+16
 6.200000e+02	 1.44504004e+00	 3.20520808e-01	-9.55705171e+01	 5.00000000e-01	 3.7690e+03	 9.8656e+15	-1.0000e+16
 6.300000e+02	 1.44503048e+00	 3.20511251e-01	-9.76703521e+01	 5.00000000e-01	 3.7704e+03	 9.8619e+15	-1.0000e+16
 6.400000e+02	 1.44502071e+00	 3.20501484e-01	-9.98268324e+01	 5.00000000e-01	 3.7718e+03	 9.8582e+15	-1.0000e+16
 6.500000e+02	 1.44501073e+00	 3.20491501e-01	-1.02041187e+02	 5.00000000e-01	 3.7733e+03	 9.8544e+15	-1.0000e+16
 6.600000e+02	 1.44500053e+00	 3.20481297e-01	-1.04314675e+02	 5.00000000e-01	 3.7747e+03	 9.8505e+15	-1.0000e+16
 6.700000e+02	 1.44499010e+00	 3.20470866e-01	-1.06648592e+02	 5.00000000e-01	 3.7763e+03	 9.8465e+15	-1.0000e+16
 6.800000e+02	 1.44497943e+00	 3.20460201e-01	-1.09044263e+02	 5.00000000e-01	 3.7778e+03	 9.8425e+15	-1.0000e+16
 6.900000e+02	 1.44496853e+00	 3.20449296e-01	-1.11503050e+02	 5.00000000e-01	 3.7794e+03	 9.8383e+15	-1.0000e+16
 7.000000e+02	 1.44495738e+00	 3.20438146e-01	-1.14026348e+02	 5.00000000e-01	 3.7810e+03	 9.8341e+15	-1.0000e+16
 7.100000e+02	 1.44494597e+00	 3.20426743e-01	-1.16615588e+02	 5.00000000e-01	 3.7827e+03	 9.8297e+15	-1.0000e+16
 7.200000e+02	 1.44493431e+00	 3.20415082e-01	-1.19272238e+02	 5.00000000e-01	 3.7844e+03	 9.8253e+15	-1.0000e+16
 7.300000e+02	 1.44492239e+00	 3.20403155e-01	-1.21997802e+02	 5.00000000e-01	 3.7862e+03	 9.8208e+15	-1.0000e+16
 7.400000e+02	 1.44491019e+00	 3.20390955e-01	-1.24793822e+02	 5.00000000e-01	 3.7880e+03	 9.8161e+15	-1.0000e+16
 7.500000e+02	 1.44489771e+00	 3.20378475e-01	-1.27661877e+02	 5.00000000e-01	 3.7898e+03	 9.8114e+15	-1.0000e+16
 7.600000e+02	 1.44488494e+00	 3.20365709e-01	-1.30603589e+02	 5.00000000e-01	 3.7917e+03	 9.8065e+15	-1.0000e+16
 7.700000e+02	 1.44487188e+00	 3.20352649e-01	-1.33620616e+02	 5.00000000e-01	 3.7936e+03	 9.8016e+15	-1.0000e+16
 7.800000e+02	 1.44485852e+00	 3.20339287e-01	-1.36714658e+02	 5.00000000e-01	 3.7955e+03	 9.7965e+15	-1.0000e+16
 7.900000e+02	 1.44484485e+00	 3.20325615e-01	-1.39887459e+02	 5.00000000e-01	 3.7975e+03	 9.7913e+15	-1.0000e+16
 8.000000e+02	 1.44483086e+00	 3.20311627e-01	-1.43140802e+02	 5.00000000e-01	 3.7996e+03	 9.7860e+15	-1.0000e+16
 8.100000e+02	 1.44481654e+00	 3.20297312e-01	-1.46476516e+02	 5.00000000e-01	 3.8017e+03	 9.7806e+15	-1.0000e+16
 8.200000e+02	 1.44480190e+00	 3.20282665e-01	-1.49896473e+02	 5.00000000e-01	 3.8039e+03	 9.7751e+15	-1.0000e+16
 8.300000e+02	 1.44478691e+00	 3.20267675e-01	-1.53402590e+02	 5.00000000e-01	 3.8061e+03	 9.7694e+15	-1.0000e+16
 8.400000e+02	 1.44477157e+00	 3.20252335e-01	-1.56996832e+02	 5.00000000e-01	 3.8083e+03	 9.7636e+15	-1.0000e+16
 8.500000e+02	 1.44475587e+00	 3.20236635e-01	-1.60681208e+02	 5.00000000e-01	 3.8106e+03	 9.7577e+15	-1.0000e+16
 8.600000e+02	 1.44473980e+00	 3.20220567e-01	-1.64457777e+02	 5.00000000e-01	 3.8130e+03	 9.7516e+15	-1.0000e+16
 8.700000e+02	 1.44472335e+00	 3.20204121e-01	-1.68328648e+02	 5.00000000e-01	 3.8154e+03	 9.7454e+15	-1.0000e+16
 8.800000e+02	 1.44470652e+00	 3.20187288e-01	-1.72295977e+02	 5.00000000e-01	 3.8179e+03	 9.7391e+15	-1.0000e+16
 8.900000e+02	 1.44468929e+00	 3.20170059e-01	-1.76361973e+02	 5.00000000e-01	 3.8205e+03	 9.7326e+15	-1.0000e+16
 9.000000e+02	 1.44467165e+00	 3.20152423e-01	-1.80528896e+02	 5.00000000e-01	 3.8231e+03	 9.7260e+15	-1.0000e+16
 9.100000e+02	 1.44465360e+00	 3.20134370e-01	-1.84799059e+02	 5.00000000e-01	 3.8257e+03	 9.7192e+15	-1.0000e+16
 9.200000e+02	 1.44463512e+00	 3.20115890e-01	-1.89174831e+02	 5.00000000e-01	 3.8285e+03	 9.7122e+15	-1.0000e+16
 9.300000e+02	 1.44461620e+00	 3.20096972e-01	-1.93658632e+02	 5.00000000e-01	 3.8313e+03	 9.7051e+15	-1.0000e+16
 9.400000e+02	 1.44459684e+00	 3.20077606e-01	-1.98252943e+02	 5.00000000e-01	 3.8341e+03	 9.6979e+15	-1.0000e+16
 9.500000e+02	 1.44457701e+00	 3.20057781e-01	-2.02960298e+02	 5.00000000e-01	 3.8371e+03	 9.6904e+15	-1.0000e+16
 9.600000e+02	 1.44455672e+00	 3.20037485e-01	-2.07783293e+02	 5.00000000e-01	 3.8401e+03	 9.6828e+15	-1.0000e+16
 9.700000e+02	 1.44453594e+00	 3.20016707e-01	-2.12724581e+02	 5.00000000e-01	 3.8432e+03	 9.6750e+15	-1.0000e+16
 9.800000e+02	 1.44451467e+00	 3.19995434e-01	-2.17786877e+02	 5.00000000e-01	 3.8464e+03	 9.6671e+15	-1.0000e+16
 9.900000e+02	 1.44449289e+00	 3.19973656e-01	-2.22972958e+02	 5.00000000e-01	 3.8496e+03	 9.6589e+15	-1.0000e+16
 1.000000e+03	 1.44447059e+00	 3.19951358e-01	-2.28285663e+02	 5.00000000e-01	 3.8529e+03	 9.6506e+15	-1.0000e+16
 1.010000e+03	 1.44444776e+00	 3.19928530e-01	-2.33727896e+02	 5.00000000e-01	 3.8563e+03	 9.6421e+15	-1.0000e+16
 1.020000e+03	 1.44442439e+00	 3.19905157e-01	-2.39302626e+02	 5.00000000e-01	 3.8598e+03	 9.6334e+15	-1.0000e+16
 1.030000e+03	 1.44440046e+00	 3.19881227e-01	-2.45012891e+02	 5.00000000e-01	 3.8634e+03	 9.6245e+15	-1.0000e+16
 1.040000e+03	 1.44437596e+00	 3.19856725e-01	-2.50861793e+02	 5.00000000e-01	 3.8670e+03	 9.6154e+15	-1.0000e+16
 1.050000e+03	 1.44435087e+00	 3.19831639e-01	-2.56852507e+02	 5.00000000e-01	 3.8708e+03	 9.6060e+15	-1.0000e+16
 1.060000e+03	 1.44432518e+00	 3.19805954e-01	-2.62988276e+02	 5.00000000e-01	 3.8747e+03	 9.5965e+15	-1.0000e+16
 1.070000e+03	 1.44429889e+00	 3.19779655e-01	-2.69272417e+02	 5.00000000e-01	 3.8786e+03	 9.5867e+15	-1.0000e+16
 1.080000e+03	 1.44427196e+00	 3.19752728e-01	-2.75708317e+02	 5.00000000e-01	 3.8826e+03	 9.5768e+15	-1.0000e+16
 1.090000e+03	 1.44424439e+00	 3.19725157e-01	-2.82299442e+02	 5.00000000e-01	 3.8868e+03	 9.5665e+15	-1.0000e+16
 1.100000e+03	 1.44421616e+00	 3.19696927e-01	-2.89049330e+02	 5.00000000e-01	 3.8910e+03	 9.5561e+15	-1.0000e+16
 1.110000e+03	 1.44418725e+00	 3.19668022e-01	-2.95961598e+02	 5.00000000e-01	 3.8954e+03	 9.5454e+15	-1.0000e+16
 1.120000e+03	 1.44415766e+00	 3.19638426e-01	-3.03039941e+02	 5.00000000e-01	 3.8998e+03	 9.5345e+15	-1.0000e+16
 1.130000e+03	 1.44412735e+00	 3.19608122e-01	-3.10288134e+02	 5.00000000e-01	 3.9044e+03	 9.5233e+15	-1.0000e+16
 1.140000e+03	 1.44409632e+00	 3.19577093e-01	-3.17710033e+02	 5.00000000e-01	 3.9091e+03	 9.5119e+15	-1.0000e+16
 1.150000e+03	 1.44406455e+00	 3.19545322e-01	-3.25309578e+02	 5.00000000e-01	 3.9139e+03	 9.5002e+15	-1.0000e+16
 1.160000e+03	 1.44403202e+00	 3.19512791e-01	-3.33090791e+02	 5.00000000e-01	 3.9188e+03	 9.4883e+15	-1.0000e+16
 1.170000e+03	 1.44399871e+00	 3.19479482e-01	-3.41057781e+02	 5.00000000e-01	 3.9239e+03	 9.4761e+15	-1.0000e+16
 1.180000e+03	 1.44396461e+00	 3.19445377e-01	-3.49214744e+02	 5.00000000e-01	 3.9291e+03	 9.4636e+15	-1.0000e+16
 1.190000e+03	 1.44392969e+00	 3.19410455e-01	-3.57565964e+02	 5.00000000e-01	 3.9344e+03	 9.4508e+15	-1.0000e+16
 1.200000e+03	 1.44389393e+00	 3.19374698e-01	-3.66115815e+02	 5.00000000e-01	 3.9398e+03	 9.4377e+15	-1.0000e+16
 1.210000e+03	 1.44385732e+00	 3.19338087e-01	-3.74868761e+02	 5.00000000e-01	 3.9454e+03	 9.4244e+15	-1.0000e+16
 1.220000e+03	 1.44381983e+00	 3.19300600e-01	-3.83829361e+02	 5.00000000e-01	 3.9511e+03	 9.4107e+15	-1.0000e+16
 1.230000e+03	 1.44378145e+00	 3.19262217e-01	-3.93002266e+02	 5.00000000e-01	 3.9570e+03	 9.3968e+15	-1.0000e+16
 1.240000e+03	 1.44374215e+00	 3.19222917e-01	-4.02392223e+02	 5.00000000e-01	 3.9630e+03	 9.3825e+15	-1.0000e+16
 1.250000e+03	 1.44370191e+00	 3.19182678e-01	-4.12004078e+02	 5.00000000e-01	 3.9692e+03	 9.3679e+15	-1.0000e+16
 1.260000e+03	 1.44366071e+00	 3.19141477e-01	-4.21842772e+02	 5.00000000e-01	 3.9755e+03	 9.3530e+15	-1.0000e+16
 1.270000e+03	 1.44361852e+00	 3.19099293e-01	-4.31913350e+02	 5.00000000e-01	 3.9820e+03	 9.3377e+15	-1.0000e+16
 1.280000e+03	 1.44357533e+00	 3.19056102e-01	-4.42220953e+02	 5.00000000e-01	 3.9887e+03	 9.3221e+15	-1.0000e+16
 1.290000e+03	 1.44353111e+00	 3.19011879e-01	-4.52770830e+02	 5.00000000e-01	 3.9955e+03	 9.3062e+15	-1.0000e+16
 1.300000e+03	 1.44348583e+00	 3.18966602e-01	-4.63568331e+02	 5.00000000e-01	 4.0025e+03	 9.2899e+15	-1.0000e+16
 1.310000e+03	 1.44343948e+00	 3.18920246e-01	-4.74618912e+02	 5.00000000e-01	 4.0097e+03	 9.2733e+15	-1.0000e+16
 1.320000e+03	 1.44339201e+00	 3.18872784e-01	-4.85928137e+02	 5.00000000e-01	 4.0171e+03	 9.2563e+15	-1.0000e+16
 1.330000e+03	 1.44334342e+00	 3.18824191e-01	-4.97501677e+02	 5.00000000e-01	 4.0246e+03	 9.2389e+15	-1.0000e+16
 1.340000e+03	 1.44329367e+00	 3.18774441e-01	-5.09345313e+02	 5.00000000e-01	 4.0324e+03	 9.2211e+15	-1.0000e+16
 1.350000e+03	 1.44324274e+00	 3.18723506e-01	-5.21464937e+02	 5.00000000e-01	 4.0403e+03	 9.2030e+15	-1.0000e+16
 1.360000e+03	 1.44319059e+00	 3.18671360e-01	-5.33866553e+02	 5.00000000e-01	 4.0485e+03	 9.1844e+15	-1.0000e+16
 1.370000e+03	 1.44313720e+00	 3.18617973e-01	-5.46556280e+02	 5.00000000e-01	 4.0569e+03	 9.1655e+15	-1.0000e+16
 1.380000e+03	 1.44308255e+00	 3.18563317e-01	-5.59540349e+02	 5.00000000e-01	 4.0654e+03	 9.1461e+15	-1.0000e+16
 1.390000e+03	 1.44302659e+00	 3.18507363e-01	-5.72825109e+02	 5.00000000e-01	 4.0743e+03	 9.1263e+15	-1.0000e+16
 1.400000e+03	 1.44296931e+00	 3.18450081e-01	-5.86417026e+02	 5.00000000e-01	 4.0833e+03	 9.1061e+15	-1.0000e+16
 1.410000e+03	 1.44291067e+00	 3.18391439e-01	-6.00322684e+02	 5.00000000e-01	 4.0926e+03	 9.0855e+15	-1.0000e+16
 1.420000e+03	 1.44285064e+00	 3.18331407e-01	-6.14548786e+02	 5.00000000e-01	 4.1021e+03	 9.0644e+15	-1.0000e+16
 1.430000e+03	 1.44278918e+00	 3.18269952e-01	-6.29102156e+02	 5.00000000e-01	 4.1118e+03	 9.0429e+15	-1.0000e+16
 1.440000e+03	 1.44272627e+00	 3.18207042e-01	-6.43989739e+02	 5.00000000e-01	 4.1219e+03	 9.0209e+15	-1.0000e+16
 1.450000e+03	 1.44266187e+00	 3.18142643e-01	-6.59218603e+02	 5.00000000e-01	 4.1321e+03	 8.9985e+15	-1.0000e+16
 1.460000e+03	 1.44259595e+00	 3.18076721e-01	-6.74795939e+02	 5.00000000e-01	 4.1427e+03	 8.9756e+15	-1.0000e+16
 1.470000e+03	 1.44252847e+00	 3.18009241e-01	-6.90729062e+02	 5.00000000e-01	 4.1535e+03	 8.9522e+15	-1.0000e+16
 1.480000e+03	 1.44245940e+00	 3.17940168e-01	-7.07025413e+02	 5.00000000e-01	 4.1646e+03	 8.9283e+15	-1.0000e+16
 1.490000e+03	 1.44238870e+00	 3.17869466e-01	-7.23692557e+02	 5.00000000e-01	 4.1760e+03	 8.9039e+15	-1.0000e+16
 1.500000e+03	 1.44231633e+00	 3.17797097e-01	-7.40738187e+02	 5.00000000e-01	 4.1877e+03	 8.8790e+15	-1.0000e+16
 1.510000e+03	 1.44224225e+00	 3.17723023e-01	-7.58170121e+02	 5.00000000e-01	 4.1998e+03	 8.8536e+15	-1.0000e+16
 1.520000e+03	 1.44216644e+00	 3.17647206e-01	-7.75996306e+02	 5.00000000e-01	 4.2121e+03	 8.8277e+15	-1.0000e+16
 1.530000e+03	 1.44208884e+00	 3.17569606e-01	-7.94224817e+02	 5.00000000e-01	 4.2248e+03	 8.8012e+15	-1.0000e+16
 1.540000e+03	 1.44200941e+00	 3.17490184e-01	-8.12863854e+02	 5.00000000e-01	 4.2378e+03	 8.7742e+15	-1.0000e+16
 1.550000e+03	 1.44192813e+00	 3.17408897e-01	-8.31921749e+02	 5.00000000e-01	 4.2511e+03	 8.7467e+15	-1.0000e+16
 1.560000e+03	 1.44184494e+00	 3.17325705e-01	-8.51406961e+02	 5.00000000e-01	 4.2648e+03	 8.7186e+15	-1.0000e+16
 1.570000e+03	 1.44175980e+00	 3.17240564e-01	-8.71328076e+02	 5.00000000e-01	 4.2789e+03	 8.6899e+15	-1.0000e+16
 1.580000e+03	 1.44167266e+00	 3.17153432e-01	-8.91693810e+02	 5.00000000e-01	 4.2933e+03	 8.6607e+15	-1.0000e+16
 1.590000e+03	 1.44158349e+00	 3.17064262e-01	-9.12513006e+02	 5.00000000e-01	 4.3082e+03	 8.6309e+15	-1.0000e+16
 1.600000e+03	 1.44149224e+00	 3.16973011e-01	-9.33794635e+02	 5.00000000e-01	 4.3234e+03	 8.6004e+15	-1.0000e+16
 1.610000e+03	 1.44139886e+00	 3.16879631e-01	-9.55547796e+02	 5.00000000e-01	 4.3390e+03	 8.5694e+15	-1.0000e+16
 1.620000e+03	 1.44130331e+00	 3.16784077e-01	-9.77781712e+02	 5.00000000e-01	 4.3551e+03	 8.5378e+15	-1.0000e+16
 1.630000e+03	 1.44120553e+00	 3.16686299e-01	-1.00050573e+03	 5.00000000e-01	 4.3716e+03	 8.5056e+15	-1.0000e+16
 1.640000e+03	 1.44110548e+00	 3.16586248e-01	-1.02372934e+03	 5.00000000e-01	 4.3886e+03	 8.4727e+15	-1.0000e+16
 1.650000e+03	 1.44100311e+00	 3.16483875e-01	-1.04746212e+03	 5.00000000e-01	 4.4060e+03	 8.4393e+15	-1.0000e+16
 1.660000e+03	 1.44089836e+00	 3.16379129e-01	-1.07171380e+03	 5.00000000e-01	 4.4239e+03	 8.4051e+15	-1.0000e+16
 1.670000e+03	 1.44079119e+00	 3.16271957e-01	-1.09649423e+03	 5.00000000e-01	 4.4422e+03	 8.3704e+15	-1.0000e+16
 1.680000e+03	 1.44068154e+00	 3.16162308e-01	-1.12181337e+03	 5.00000000e-01	 4.4611e+03	 8.3349e+15	-1.0000e+16
 1.690000e+03	 1.44056936e+00	 3.16050127e-01	-1.14768129e+03	 5.00000000e-01	 4.4805e+03	 8.2988e+15	-1.0000e+16
 1.700000e+03	 1.44045459e+00	 3.15935359e-01	-1.17410819e+03	 5.00000000e-01	 4.5004e+03	 8.2621e+15	-1.0000e+16
 1.710000e+03	 1.44033718e+00	 3.15817948e-01	-1.20110438e+03	 5.00000000e-01	 4.5209e+03	 8.2246e+15	-1.0000e+16
 1.720000e+03	 1.44021707e+00	 3.15697837e-01	-1.22868028e+03	 5.00000000e-01	 4.5420e+03	 8.1865e+15	-1.0000e+16
 1.730000e+03	 1.44009420e+00	 3.15574969e-01	-1.25684642e+03	 5.00000000e-01	 4.5636e+03	 8.1477e+15	-1.0000e+16
