Y (ang)	Ec (eV)	Ev (eV)	E (V/cm)	Ef (eV)	n (cm-3)	p (cm-3)	Nd - Na (cm-3)
 0.000000e+00	 6.00000000e-01	-9.18954205e-01	 0.00000000e+00	-0.00000000e+00	 1.0000e-10	 1.0000e-10	 0.0000e+00
 1.000000e+01	 6.00000000e-01	-9.18954205e-01	 0.00000000e+00	 0.00000000e+00	 1.0000e-10	 1.0000e-10	 0.0000e+00
 2.000000e+01	 6.00000000e-01	-9.18954205e-01	 0.00000000e+00	 0.00000000e+00	 1.0000e-10	 1.0000e-10	 0.0000e+00
 3.000000e+01	 6.00000000e-01	-9.18954205e-01	 0.00000000e+00	 0.00000000e+00	 1.0000e-10	 1.0000e-10	 0.0000e+00
 4.000000e+01	 6.00000000e-01	-9.18954205e-01	 0.00000000e+00	 0.00000000e+00	 1.0000e-10	 1.0000e-10	 0.0000e+00
 5.000000e+01	 6.00000000e-01	-9.18954205e-01	 0.00000000e+00	 0.00000000e+00	 1.0000e-10	 1.0000e-10	 0.0000e+00
 6.000000e+01	 6.00000000e-01	-9.18954205e-01	 0.00000000e+00	 0.00000000e+00	 1.0000e-10	 1.0000e-10	 0.0000e+00
 7.000000e+01	 6.00000000e-01	-9.18954205e-01	 0.00000000e+00	 0.00000000e+00	 1.0000e-10	 1.0000e-10	 0.0000e+00
 8.000000e+01	 6.00000000e-01	-9.18954205e-01	 0.00000000e+00	 0.00000000e+00	 1.0000e-10	 1.0000e-10	 0.0000e+00
 9.000000e+01	 6.00000000e-01	-9.18954205e-01	 0.00000000e+00	 0.00000000e+00	 1.0000e-10	 1.0000e-10	 0.0000e+00
 1.000000e+02	 6.00000000e-01	-9.18954205e-01	 0.00000000e+00	 0.00000000e+00	 1.0000e-10	 1.0000e-10	 0.0000e+00
 1.100000e+02	 6.00000000e-01	-9.18954205e-01	 0.00000000e+00	 0.00000000e+00	 1.0000e-10	 1.0000e-10	 0.0000e+00
 1.200000e+02	 6.00000000e-01	-9.18954205e-01	 0.00000000e+00	 0.00000000e+00	 1.0000e-10	 1.0000e-10	 0.0000e+00
 1.300000e+02	 6.00000000e-01	-9.18954205e-01	 0.00000000e+00	 0.00000000e+00	 1.0000e-10	 1.0000e-10	 0.0000e+00
 1.400000e+02	 6.00000000e-01	-9.18954205e-01	 0.00000000e+00	 0.00000000e+00	 1.0000e-10	 1.0000e-10	 0.0000e+00
 1.500000e+02	 6.00000000e-01	-9.18954205e-01	 0.00000000e+00	 0.00000000e+00	 1.0000e-10	 1.0000e-10	 0.0000e+00
 1.600000e+02	 6.00000000e-01	-9.18954205e-01	 0.00000000e+00	 0.00000000e+00	 1.0000e-10	 1.0000e-10	 0.0000e+00
 1.700000e+02	 6.00000000e-01	-9.18954205e-01	 0.00000000e+00	 0.00000000e+00	 1.0000e-10	 1.0000e-10	 0.0000e+00
 1.800000e+02	 6.00000000e-01	-9.18954205e-01	 0.00000000e+00	 0.00000000e+00	 1.0000e-10	 1.0000e-10	 0.0000e+00
 1.900000e+02	 6.00000000e-01	-9.18954205e-01	 0.00000000e+00	 0.00000000e+00	 1.0000e-10	 1.0000e-10	 0.0000e+00
 2.000000e+02	 6.00000000e-01	-9.18954205e-01	 0.00000000e+00	 0.00000000e+00	 1.0000e-10	 1.0000e-10	 0.0000e+00
 2.100000e+02	 6.04328800e-01	-9.21105009e-01	 0.00000000e+00	 0.00000000e+00	 1.0000e-10	 1.0000e-10	 0.0000e+00
 2.200000e+02	 6.08657600e-01	-9.23279018e-01	 0.00000000e+00	 0.00000000e+00	 1.0000e-10	 1.0000e-10	 0.0000e+00
 2.300000e+02	 6.12986400e-01	-9.25476234e-01	 0.00000000e+00	 0.00000000e+00	 1.0000e-10	 1.0000e-10	 0.0000e+00
 2.400000e+02	 6.17315200e-01	-9.27696657e-01	 0.00000000e+00	 0.00000000e+00	 1.0000e-10	 1.0000e-10	 0.0000e+00
 2.500000e+02	 6.21644000e-01	-9.29940285e-01	 0.00000000e+00	 0.00000000e+00	 1.0000e-10	 1.0000e-10	 0.0000e+00
 2.600000e+02	 6.25972800e-01	-9.32207121e-01	 0.00000000e+00	 0.00000000e+00	 1.0000e-10	 1.0000e-10	 0.0000e+00
 2.700000e+02	 6.30301600e-01	-9.34497162e-01	 0.00000000e+00	 0.00000000e+00	 1.0000e-10	 1.0000e-10	 0.0000e+00
 2.800000e+02	 6.34630400e-01	-9.36810410e-01	 0.00000000e+00	 0.00000000e+00	 1.0000e-10	 1.0000e-10	 0.0000e+00
 2.900000e+02	 6.38959200e-01	-9.39146865e-01	 0.00000000e+00	 0.00000000e+00	 1.0000e-10	 1.0000e-10	 0.0000e+00
 3.000000e+02	 6.43288000e-01	-9.41506525e-01	 0.00000000e+00	 0.00000000e+00	 1.0000e-10	 1.0000e-10	 0.0000e+00
 3.100000e+02	 6.47616800e-01	-9.43889393e-01	 0.00000000e+00	 0.00000000e+00	 1.0000e-10	 1.0000e-10	 0.0000e+00
 3.200000e+02	 6.51945600e-01	-9.46295466e-01	 0.00000000e+00	 0.00000000e+00	 1.0000e-10	 1.0000e-10	 0.0000e+00
 3.300000e+02	 6.56274400e-01	-9.48724746e-01	 0.00000000e+00	 0.00000000e+00	 1.0000e-10	 1.0000e-10	 0.0000e+00
 3.400000e+02	 6.60603200e-01	-9.51177233e-01	 0.00000000e+00	 0.00000000e+00	 1.0000e-10	 1.0000e-10	 0.0000e+00
 3.500000e+02	 6.64932000e-01	-9.53652925e-01	 0.00000000e+00	 0.00000000e+00	 1.0000e-10	 1.0000e-10	 0.0000e+00
 3.600000e+02	 6.69260800e-01	-9.56151825e-01	 0.00000000e+00	 0.00000000e+00	 1.0000e-10	 1.0000e-10	 0.0000e+00
 3.700000e+02	 6.73589600e-01	-9.58673930e-01	 0.00000000e+00	 0.00000000e+00	 1.0000e-10	 1.0000e-10	 0.0000e+00
 3.800000e+02	 6.77918400e-01	-9.61219242e-01	 0.00000000e+00	 0.00000000e+00	 1.0000e-10	 1.0000e-10	 0.0000e+00
 3.900000e+02	 6.82247200e-01	-9.63787761e-01	 0.00000000e+00	 0.00000000e+00	 1.0000e-10	 1.0000e-10	 0.0000e+00
 4.000000e+02	 6.86576000e-01	-9.66379485e-01	 0.00000000e+00	 0.00000000e+00	 1.0000e-10	 1.0000e-10	 0.0000e+00
 4.100000e+02	 6.90904800e-01	-9.68994417e-01	 0.00000000e+00	 0.00000000e+00	 1.0000e-10	 1.0000e-10	 0.0000e+00
 4.200000e+02	 6.95233600e-01	-9.71632554e-01	 0.00000000e+00	 0.00000000e+00	 1.0000e-10	 1.0000e-10	 0.0000e+00
 4.300000e+02	 6.99562400e-01	-9.74293898e-01	 0.00000000e+00	 0.00000000e+00	 1.0000e-10	 1.0000e-10	 0.0000e+00
 4.400000e+02	 7.03891200e-01	-9.76978449e-01	 0.00000000e+00	 0.00000000e+00	 1.0000e-10	 1.0000e-10	 0.0000e+00
 4.500000e+02	 7.08220000e-01	-9.79686205e-01	 0.00000000e+00	 0.00000000e+00	 1.0000e-10	 1.0000e-10	 0.0000e+00
 4.600000e+02	 7.12548800e-01	-9.82417169e-01	 0.00000000e+00	 0.00000000e+00	 1.0000e-10	 1.0000e-10	 0.0000e+00
 4.700000e+02	 7.16877600e-01	-9.85171338e-01	 0.00000000e+00	 0.00000000e+00	 1.0000e-10	 1.0000e-10	 0.0000e+00
 4.800000e+02	 7.21206400e-01	-9.87948714e-01	 0.00000000e+00	 0.00000000e+00	 1.0000e-10	 1.0000e-10	 0.0000e+00
 4.900000e+02	 7.25535200e-01	-9.90749297e-01	 0.00000000e+00	 0.00000000e+00	 1.0000e-10	 1.0000e-10	 0.0000e+00
 5.000000e+02	 7.29864000e-01	-9.93573085e-01	 0.00000000e+00	 0.00000000e+00	 1.0000e-10	 1.0000e-10	 0.0000e+00
 5.100000e+02	 7.34192800e-01	-9.96420081e-01	 0.00000000e+00	 0.00000000e+00	 1.0000e-10	 1.0000e-10	 0.0000e+00
 5.200000e+02	 7.38521600e-01	-9.99290282e-01	 0.00000000e+00	 0.00000000e+00	 1.0000e-10	 1.0000e-10	 0.0000e+00
 5.300000e+02	 7.42850400e-01	-1.00218369e+00	 0.00000000e+00	 0.00000000e+00	 1.0000e-10	 1.0000e-10	 0.0000e+00
 5.400000e+02	 7.47179200e-01	-1.00510030e+00	 0.00000000e+00	 0.00000000e+00	 1.0000e-10	 1.0000e-10	 0.0000e+00
 5.500000e+02	 7.51508000e-01	-1.00804013e+00	 0.00000000e+00	 0.00000000e+00	 1.0000e-10	 1.0000e-10	 0.0000e+00
 5.600000e+02	 7.55836800e-01	-1.01100315e+00	 0.00000000e+00	 0.00000000e+00	 1.0000e-10	 1.0000e-10	 0.0000e+00
 5.700000e+02	 7.60165600e-01	-1.01398939e+00	 0.00000000e+00	 0.00000000e+00	 1.0000e-10	 1.0000e-10	 0.0000e+00
 5.800000e+02	 7.64494400e-01	-1.01699883e+00	 0.00000000e+00	 0.00000000e+00	 1.0000e-10	 1.0000e-10	 0.0000e+00
 5.900000e+02	 7.68823200e-01	-1.02003147e+00	 0.00000000e+00	 0.00000000e+00	 1.0000e-10	 1.0000e-10	 0.0000e+00
 6.000000e+02	 7.73152000e-01	-1.02308733e+00	 0.00000000e+00	 0.00000000e+00	 1.0000e-10	 1.0000e-10	 0.0000e+00
 6.100000e+02	 7.77480800e-01	-1.02616638e+00	 0.00000000e+00	 0.00000000e+00	 1.0000e-10	 1.0000e-10	 0.0000e+00
 6.200000e+02	 7.81809600e-01	-1.02926865e+00	 0.00000000e+00	 0.00000000e+00	 1.0000e-10	 1.0000e-10	 0.0000e+00
 6.300000e+02	 7.86138400e-01	-1.03239412e+00	 0.00000000e+00	 0.00000000e+00	 1.0000e-10	 1.0000e-10	 0.0000e+00
 6.400000e+02	 7.90467200e-01	-1.03554280e+00	 0.00000000e+00	 0.00000000e+00	 1.0000e-10	 1.0000e-10	 0.0000e+00
 6.500000e+02	 7.94796000e-01	-1.03871469e+00	 0.00000000e+00	 0.00000000e+00	 1.0000e-10	 1.0000e-10	 0.0000e+00
 6.600000e+02	 7.99124800e-01	-1.04190978e+00	 0.00000000e+00	 0.00000000e+00	 1.0000e-10	 1.0000e-10	 0.0000e+00
 6.700000e+02	 8.03453600e-01	-1.04512807e+00	 0.00000000e+00	 0.00000000e+00	 1.0000e-10	 1.0000e-10	 0.0000e+00
 6.800000e+02	 8.07782400e-01	-1.04836958e+00	 0.00000000e+00	 0.00000000e+00	 1.0000e-10	 1.0000e-10	 0.0000e+00
 6.900000e+02	 8.12111200e-01	-1.05163429e+00	 0.00000000e+00	 0.00000000e+00	 1.0000e-10	 1.0000e-10	 0.0000e+00
 7.000000e+02	 6.00000000e-01	-9.18954205e-01	 0.00000000e+00	 0.00000000e+00	 1.0000e-10	 1.0000e-10	 0.0000e+00
 7.100000e+02	 6.00000000e-01	-9.18954205e-01	 0.00000000e+00	 0.00000000e+00	 1.0000e-10	 1.0000e-10	 0.0000e+00
 7.200000e+02	 6.00000000e-01	-9.18954205e-01	 0.00000000e+00	 0.00000000e+00	 1.0000e-10	 1.0000e-10	 0.0000e+00
 7.300000e+02	 6.00000000e-01	-9.18954205e-01	 0.00000000e+00	 0.00000000e+00	 1.0000e-10	 1.0000e-10	 0.0000e+00
 7.400000e+02	 6.00000000e-01	-9.18954205e-01	 0.00000000e+00	 0.00000000e+00	 1.0000e-10	 1.0000e-10	 0.0000e+00
 7.500000e+02	 6.00000000e-01	-9.18954205e-01	 0.00000000e+00	 0.00000000e+00	 1.0000e-10	 1.0000e-10	 0.0000e+00
 7.600000e+02	 6.00000000e-01	-9.18954205e-01	 0.00000000e+00	 0.00000000e+00	 1.0000e-10	 1.0000e-10	 0.0000e+00
 7.700000e+02	 6.00000000e-01	-9.18954205e-01	 0.00000000e+00	 0.00000000e+00	 1.0000e-10	 1.0000e-10	 0.0000e+00
 7.800000e+02	 6.00000000e-01	-9.18954205e-01	 0.00000000e+00	 0.00000000e+00	 1.0000e-10	 1.0000e-10	 0.0000e+00
 7.900000e+02	 6.00000000e-01	-9.18954205e-01	 0.00000000e+00	 0.00000000e+00	 1.0000e-10	 1.0000e-10	 0.0000e+00
 8.000000e+02	 6.00000000e-01	-9.18954205e-01	 0.00000000e+00	 0.00000000e+00	 1.0000e-10	 1.0000e-10	 0.0000e+00
 8.100000e+02	 6.00000000e-01	-9.18954205e-01	 0.00000000e+00	 0.00000000e+00	 1.0000e-10	 1.0000e-10	 0.0000e+00
 8.200000e+02	 6.00000000e-01	-9.18954205e-01	 0.00000000e+00	 0.00000000e+00	 1.0000e-10	 1.0000e-10	 0.0000e+00
 8.300000e+02	 6.00000000e-01	-9.18954205e-01	 0.00000000e+00	 0.00000000e+00	 1.0000e-10	 1.0000e-10	 0.0000e+00
 8.400000e+02	 6.00000000e-01	-9.18954205e-01	 0.00000000e+00	 0.00000000e+00	 1.0000e-10	 1.0000e-10	 0.0000e+00
 8.500000e+02	 6.00000000e-01	-9.18954205e-01	 0.00000000e+00	 0.00000000e+00	 1.0000e-10	 1.0000e-10	 0.0000e+00
 8.600000e+02	 6.00000000e-01	-9.18954205e-01	 0.00000000e+00	 0.00000000e+00	 1.0000e-10	 1.0000e-10	 0.0000e+00
 8.700000e+02	 6.00000000e-01	-9.18954205e-01	 0.00000000e+00	 0.00000000e+00	 1.0000e-10	 1.0000e-10	 0.0000e+00
 8.800000e+02	 6.00000000e-01	-9.18954205e-01	 0.00000000e+00	 0.00000000e+00	 1.0000e-10	 1.0000e-10	 0.0000e+00
 8.900000e+02	 6.00000000e-01	-9.18954205e-01	 0.00000000e+00	 0.00000000e+00	 1.0000e-10	 1.0000e-10	 0.0000e+00
 9.000000e+02	 6.00000000e-01	-9.18954205e-01	 0.00000000e+00	 0.00000000e+00	 1.0000e-10	 1.0000e-10	 0.0000e+00
 9.100000e+02	 6.00000000e-01	-9.18954205e-01	 0.00000000e+00	 0.00000000e+00	 1.0000e-10	 1.0000e-10	 0.0000e+00
 9.200000e+02	 6.00000000e-01	-9.18954205e-01	 0.00000000e+00	 0.00000000e+00	 1.0000e-10	 1.0000e-10	 0.0000e+00
 9.300000e+02	 6.00000000e-01	-9.18954205e-01	 0.00000000e+00	 0.00000000e+00	 1.0000e-10	 1.0000e-10	 0.0000e+00
 9.400000e+02	 6.00000000e-01	-9.18954205e-01	 0.00000000e+00	 0.00000000e+00	 1.0000e-10	 1.0000e-10	 0.0000e+00
 9.500000e+02	 6.00000000e-01	-9.18954205e-01	 0.00000000e+00	 0.00000000e+00	 1.0000e-10	 1.0000e-10	 0.0000e+00
 9.600000e+02	 6.00000000e-01	-9.18954205e-01	 0.00000000e+00	 0.00000000e+00	 1.0000e-10	 1.0000e-10	 0.0000e+00
 9.700000e+02	 6.00000000e-01	-9.18954205e-01	 0.00000000e+00	 0.00000000e+00	 1.0000e-10	 1.0000e-10	 0.0000e+00
 9.800000e+02	 6.00000000e-01	-9.18954205e-01	 0.00000000e+00	 0.00000000e+00	 1.0000e-10	 1.0000e-10	 0.0000e+00
 9.900000e+02	 6.00000000e-01	-9.18954205e-01	 0.00000000e+00	 0.00000000e+00	 1.0000e-10	 1.0000e-10	 0.0000e+00
 1.000000e+03	 6.00000000e-01	-9.18954205e-01	 0.00000000e+00	 0.00000000e+00	 1.0000e-10	 1.0000e-10	 0.0000e+00
 1.010000e+03	 6.00000000e-01	-9.18954205e-01	 0.00000000e+00	 0.00000000e+00	 1.0000e-10	 1.0000e-10	 0.0000e+00
 1.020000e+03	 6.00000000e-01	-9.18954205e-01	 0.00000000e+00	 0.00000000e+00	 1.0000e-10	 1.0000e-10	 0.0000e+00
 1.030000e+03	 6.00000000e-01	-9.18954205e-01	 0.00000000e+00	 0.00000000e+00	 1.0000e-10	 1.0000e-10	 0.0000e+00
 1.040000e+03	 6.00000000e-01	-9.18954205e-01	 0.00000000e+00	 0.00000000e+00	 1.0000e-10	 1.0000e-10	 0.0000e+00
 1.050000e+03	 6.00000000e-01	-9.18954205e-01	 0.00000000e+00	 0.00000000e+00	 1.0000e-10	 1.0000e-10	 0.0000e+00
 1.060000e+03	 6.00000000e-01	-9.18954205e-01	 0.00000000e+00	 0.00000000e+00	 1.0000e-10	 1.0000e-10	 0.0000e+00
 1.070000e+03	 6.00000000e-01	-9.18954205e-01	 0.00000000e+00	 0.00000000e+00	 1.0000e-10	 1.0000e-10	 0.0000e+00
 1.080000e+03	 6.00000000e-01	-9.18954205e-01	 0.00000000e+00	 0.00000000e+00	 1.0000e-10	 1.0000e-10	 0.0000e+00
 1.090000e+03	 6.00000000e-01	-9.18954205e-01	 0.00000000e+00	 0.00000000e+00	 1.0000e-10	 1.0000e-10	 0.0000e+00
 1.100000e+03	 8.16440000e-01	-1.05492221e+00	 0.00000000e+00	 0.00000000e+00	 1.0000e-10	 1.0000e-10	 0.0000e+00
 1.110000e+03	 8.12111200e-01	-1.05163429e+00	 0.00000000e+00	 0.00000000e+00	 1.0000e-10	 1.0000e-10	 0.0000e+00
 1.120000e+03	 8.07782400e-01	-1.04836958e+00	 0.00000000e+00	 0.00000000e+00	 1.0000e-10	 1.0000e-10	 0.0000e+00
 1.130000e+03	 8.03453600e-01	-1.04512807e+00	 0.00000000e+00	 0.00000000e+00	 1.0000e-10	 1.0000e-10	 0.0000e+00
 1.140000e+03	 7.99124800e-01	-1.04190978e+00	 0.00000000e+00	 0.00000000e+00	 1.0000e-10	 1.0000e-10	 0.0000e+00
 1.150000e+03	 7.94796000e-01	-1.03871469e+00	 0.00000000e+00	 0.00000000e+00	 1.0000e-10	 1.0000e-10	 0.0000e+00
 1.160000e+03	 7.90467200e-01	-1.03554280e+00	 0.00000000e+00	 0.00000000e+00	 1.0000e-10	 1.0000e-10	 0.0000e+00
 1.170000e+03	 7.86138400e-01	-1.03239412e+00	 0.00000000e+00	 0.00000000e+00	 1.0000e-10	 1.0000e-10	 0.0000e+00
 1.180000e+03	 7.81809600e-01	-1.02926865e+00	 0.00000000e+00	 0.00000000e+00	 1.0000e-10	 1.0000e-10	 0.0000e+00
 1.190000e+03	 7.77480800e-01	-1.02616638e+00	 0.00000000e+00	 0.00000000e+00	 1.0000e-10	 1.0000e-10	 0.0000e+00
 1.200000e+03	 7.73152000e-01	-1.02308733e+00	 0.00000000e+00	 0.00000000e+00	 1.0000e-10	 1.0000e-10	 0.0000e+00
 1.210000e+03	 7.68823200e-01	-1.02003147e+00	 0.00000000e+00	 0.00000000e+00	 1.0000e-10	 1.0000e-10	 0.0000e+00
 1.220000e+03	 7.64494400e-01	-1.01699883e+00	 0.00000000e+00	 0.00000000e+00	 1.0000e-10	 1.0000e-10	 0.0000e+00
 1.230000e+03	 7.60165600e-01	-1.01398939e+00	 0.00000000e+00	 0.00000000e+00	 1.0000e-10	 1.0000e-10	 0.0000e+00
 1.240000e+03	 7.55836800e-01	-1.01100315e+00	 0.00000000e+00	 0.00000000e+00	 1.0000e-10	 1.0000e-10	 0.0000e+00
 1.250000e+03	 7.51508000e-01	-1.00804013e+00	 0.00000000e+00	 0.00000000e+00	 1.0000e-10	 1.0000e-10	 0.0000e+00
 1.260000e+03	 7.47179200e-01	-1.00510030e+00	 0.00000000e+00	 0.00000000e+00	 1.0000e-10	 1.0000e-10	 0.0000e+00
 1.270000e+03	 7.42850400e-01	-1.00218369e+00	 0.00000000e+00	 0.00000000e+00	 1.0000e-10	 1.0000e-10	 0.0000e+00
 1.280000e+03	 7.38521600e-01	-9.99290282e-01	 0.00000000e+00	 0.00000000e+00	 1.0000e-10	 1.0000e-10	 0.0000e+00
 1.290000e+03	 7.34192800e-01	-9.96420081e-01	 0.00000000e+00	 0.00000000e+00	 1.0000e-10	 1.0000e-10	 0.0000e+00
 1.300000e+03	 7.29864000e-01	-9.93573085e-01	 0.00000000e+00	 0.00000000e+00	 1.0000e-10	 1.0000e-10	 0.0000e+00
 1.310000e+03	 7.25535200e-01	-9.90749297e-01	 0.00000000e+00	 0.00000000e+00	 1.0000e-10	 1.0000e-10	 0.0000e+00
 1.320000e+03	 7.21206400e-01	-9.87948714e-01	 0.00000000e+00	 0.00000000e+00	 1.0000e-10	 1.0000e-10	 0.0000e+00
 1.330000e+03	 7.16877600e-01	-9.85171338e-01	 0.00000000e+00	 0.00000000e+00	 1.0000e-10	 1.0000e-10	 0.0000e+00
 1.340000e+03	 7.12548800e-01	-9.82417169e-01	 0.00000000e+00	 0.00000000e+00	 1.0000e-10	 1.0000e-10	 0.0000e+00
 1.350000e+03	 7.08220000e-01	-9.79686205e-01	 0.00000000e+00	 0.00000000e+00	 1.0000e-10	 1.0000e-10	 0.0000e+00
 1.360000e+03	 7.03891200e-01	-9.76978449e-01	 0.00000000e+00	 0.00000000e+00	 1.0000e-10	 1.0000e-10	 0.0000e+00
 1.370000e+03	 6.99562400e-01	-9.74293898e-01	 0.00000000e+00	 0.00000000e+00	 1.0000e-10	 1.0000e-10	 0.0000e+00
 1.380000e+03	 6.95233600e-01	-9.71632554e-01	 0.00000000e+00	 0.00000000e+00	 1.0000e-10	 1.0000e-10	 0.0000e+00
 1.390000e+03	 6.90904800e-01	-9.68994417e-01	 0.00000000e+00	 0.00000000e+00	 1.0000e-10	 1.0000e-10	 0.0000e+00
 1.400000e+03	 6.86576000e-01	-9.66379485e-01	 0.00000000e+00	 0.00000000e+00	 1.0000e-10	 1.0000e-10	 0.0000e+00
 1.410000e+03	 6.82247200e-01	-9.63787761e-01	 0.00000000e+00	 0.00000000e+00	 1.0000e-10	 1.0000e-10	 0.0000e+00
 1.420000e+03	 6.77918400e-01	-9.61219242e-01	 0.00000000e+00	 0.00000000e+00	 1.0000e-10	 1.0000e-10	 0.0000e+00
 1.430000e+03	 6.73589600e-01	-9.58673930e-01	 0.00000000e+00	 0.00000000e+00	 1.0000e-10	 1.0000e-10	 0.0000e+00
 1.440000e+03	 6.69260800e-01	-9.56151825e-01	 0.00000000e+00	 0.00000000e+00	 1.0000e-10	 1.0000e-10	 0.0000e+00
 1.450000e+03	 6.64932000e-01	-9.53652925e-01	 0.00000000e+00	 0.00000000e+00	 1.0000e-10	 1.0000e-10	 0.0000e+00
 1.460000e+03	 6.60603200e-01	-9.51177233e-01	 0.00000000e+00	 0.00000000e+00	 1.0000e-10	 1.0000e-10	 0.0000e+00
 1.470000e+03	 6.56274400e-01	-9.48724746e-01	 0.00000000e+00	 0.00000000e+00	 1.0000e-10	 1.0000e-10	 0.0000e+00
 1.480000e+03	 6.51945600e-01	-9.46295466e-01	 0.00000000e+00	 0.00000000e+00	 1.0000e-10	 1.0000e-10	 0.0000e+00
 1.490000e+03	 6.47616800e-01	-9.43889393e-01	 0.00000000e+00	 0.00000000e+00	 1.0000e-10	 1.0000e-10	 0.0000e+00
 1.500000e+03	 6.43288000e-01	-9.41506525e-01	 0.00000000e+00	 0.00000000e+00	 1.0000e-10	 1.0000e-10	 0.0000e+00
 1.510000e+03	 6.38959200e-01	-9.39146865e-01	 0.00000000e+00	 0.00000000e+00	 1.0000e-10	 1.0000e-10	 0.0000e+00
 1.520000e+03	 6.34630400e-01	-9.36810410e-01	 0.00000000e+00	 0.00000000e+00	 1.0000e-10	 1.0000e-10	 0.0000e+00
 1.530000e+03	 6.30301600e-01	-9.34497162e-01	 0.00000000e+00	 0.00000000e+00	 1.0000e-10	 1.0000e-10	 0.0000e+00
 1.540000e+03	 6.25972800e-01	-9.32207121e-01	 0.00000000e+00	 0.00000000e+00	 1.0000e-10	 1.0000e-10	 0.0000e+00
 1.550000e+03	 6.21644000e-01	-9.29940285e-01	 0.00000000e+00	 0.00000000e+00	 1.0000e-10	 1.0000e-10	 0.0000e+00
 1.560000e+03	 6.17315200e-01	-9.27696657e-01	 0.00000000e+00	 0.00000000e+00	 1.0000e-10	 1.0000e-10	 0.0000e+00
 1.570000e+03	 6.12986400e-01	-9.25476234e-01	 0.00000000e+00	 0.00000000e+00	 1.0000e-10	 1.0000e-10	 0.0000e+00
 1.580000e+03	 6.08657600e-01	-9.23279018e-01	 0.00000000e+00	 0.00000000e+00	 1.0000e-10	 1.0000e-10	 0.0000e+00
 1.590000e+03	 6.04328800e-01	-9.21105009e-01	 0.00000000e+00	 0.00000000e+00	 1.0000e-10	 1.0000e-10	 0.0000e+00
 1.600000e+03	 6.00000000e-01	-9.18954205e-01	 0.00000000e+00	 0.00000000e+00	 1.0000e-10	 1.0000e-10	 0.0000e+00
 1.610000e+03	 6.00000000e-01	-9.18954205e-01	 0.00000000e+00	 0.00000000e+00	 1.0000e-10	 1.0000e-10	 0.0000e+00
 1.620000e+03	 6.00000000e-01	-9.18954205e-01	 0.00000000e+00	 0.00000000e+00	 1.0000e-10	 1.0000e-10	 0.0000e+00
 1.630000e+03	 6.00000000e-01	-9.18954205e-01	 0.00000000e+00	 0.00000000e+00	 1.0000e-10	 1.0000e-10	 0.0000e+00
 1.640000e+03	 6.00000000e-01	-9.18954205e-01	 0.00000000e+00	 0.00000000e+00	 1.0000e-10	 1.0000e-10	 0.0000e+00
 1.650000e+03	 6.00000000e-01	-9.18954205e-01	 0.00000000e+00	 0.00000000e+00	 1.0000e-10	 1.0000e-10	 0.0000e+00
 1.660000e+03	 6.00000000e-01	-9.18954205e-01	 0.00000000e+00	 0.00000000e+00	 1.0000e-10	 1.0000e-10	 0.0000e+00
 1.670000e+03	 6.00000000e-01	-9.18954205e-01	 0.00000000e+00	 0.00000000e+00	 1.0000e-10	 1.0000e-10	 0.0000e+00
 1.680000e+03	 6.00000000e-01	-9.18954205e-01	 0.00000000e+00	 0.00000000e+00	 1.0000e-10	 1.0000e-10	 0.0000e+00
 1.690000e+03	 6.00000000e-01	-9.18954205e-01	 0.00000000e+00	 0.00000000e+00	 1.0000e-10	 1.0000e-10	 0.0000e+00
 1.700000e+03	 6.00000000e-01	-9.18954205e-01	 0.00000000e+00	 0.00000000e+00	 1.0000e-10	 1.0000e-10	 0.0000e+00
 1.710000e+03	 6.00000000e-01	-9.18954205e-01	 0.00000000e+00	 0.00000000e+00	 1.0000e-10	 1.0000e-10	 0.0000e+00
 1.720000e+03	 6.00000000e-01	-9.18954205e-01	 0.00000000e+00	 0.00000000e+00	 1.0000e-10	 1.0000e-10	 0.0000e+00
 1.730000e+03	 6.00000000e-01	-9.18954205e-01	 0.00000000e+00	 0.00000000e+00	 1.0000e-10	 1.0000e-10	 0.0000e+00
